Name,Aleksandre Beruashvili
Date of Birth,"Dec 20, 1998"
Recorded Date,2024-05-27 21:07:05 +0400
Classification,High Heart Rate
Symptoms,
Software Version,1.90
Device,"Watch7,2"
Sample Rate,512 hertz


Lead,Lead I
Unit,µV

11.761
20.195
28.601
36.948
45.205
53.34
61.324
69.125
76.712
84.057
91.129
97.901
104.344
110.432
116.136
121.433
126.298
130.711
134.65
138.097
141.036
143.454
145.341
146.688
147.49
147.744
147.449
146.606
145.221
143.3
140.852
137.887
134.42
130.466
126.044
121.174
115.877
110.175
104.093
97.656
90.89
83.821
76.474
68.877
61.057
53.044
44.866
36.551
28.127
19.62
11.059
2.471
-6.121
-14.695
-23.234
-31.723
-40.142
-48.477
-56.715
-64.845
-72.861
-80.754
-88.512
-96.123
-103.58
-110.881
-118.027
-125.018
-131.849
-138.516
-145.015
-151.348
-157.517
-163.52
-169.347
-174.987
-180.429
-185.677
-190.751
-195.663
-200.421
-205.025
-209.47
-213.753
-217.873
-221.81
-225.53
-228.994
-232.161
-235.008
-237.512
-239.659
-241.45
-242.863
-243.872
-244.442
-244.501
-244.008
-242.977
-241.441
-239.501
-237.24
-234.63
-231.827
-229.168
-226.952
-225.568
-225.154
-225.387
-226.255
-228.144
-230.977
-234.382
-237.68
-239.439
-238.943
-236.609
-232.31
-225.439
-215.954
-204.051
-191.049
-180.021
-173.016
-170.397
-172.847
-181.163
-195.683
-216.417
-239.835
-258.6
-266.687
-260.46
-240.627
-210.723
-169.736
-112.538
-31.043
81.968
224.707
388.971
563.26
734.267
890.457
1017.748
1099.059
1116.611
1056.343
916.361
703.821
438.105
150.011
-128.911
-362.303
-522.366
-603.426
-613.798
-579.026
-528.602
-476.24
-426.885
-376.553
-317.006
-250.438
-183.311
-122.642
-77.139
-49.379
-37.085
-37.803
-47.591
-62.245
-79.406
-96.396
-109.75
-117.822
-120.187
-116.874
-109.161
-98.692
-86.482
-73.93
-62.871
-54.193
-48.264
-45.133
-44.184
-44.773
-46.431
-48.522
-50.348
-51.536
-51.907
-51.41
-50.195
-48.355
-45.951
-43.084
-39.857
-36.334
-32.554
-28.549
-24.342
-19.99
-15.59
-11.204
-6.872
-2.613
1.575
5.7
9.77
13.801
17.835
21.899
26.008
30.176
34.409
38.722
43.142
47.695
52.407
57.298
62.386
67.679
73.186
78.906
84.833
90.956
97.26
103.73
110.356
117.126
124.024
131.036
138.142
145.322
152.554
159.814
167.074
174.303
181.471
188.547
195.5
202.298
208.911
215.306
221.452
227.319
232.879
238.103
242.962
247.429
251.481
255.093
258.244
260.916
263.091
264.755
265.897
266.508
266.584
266.121
265.12
263.583
261.515
258.924
255.822
252.221
248.136
243.587
238.593
233.18
227.372
221.198
214.686
207.867
200.773
193.436
185.889
178.166
170.298
162.32
154.264
146.164
138.052
129.959
121.915
113.951
106.093
98.367
90.8
83.412
76.224
69.255
62.523
56.04
49.822
43.877
38.216
32.845
27.768
22.987
18.503
14.313
10.414
6.8
3.463
0.393
-2.419
-4.986
-7.321
-9.438
-11.351
-13.075
-14.628
-16.024
-17.282
-18.418
-19.45
-20.394
-21.268
-22.088
-22.871
-23.632
-24.388
-25.151
-25.937
-26.759
-27.629
-28.56
-29.561
-30.642
-31.811
-33.074
-34.438
-35.907
-37.484
-39.17
-40.965
-42.869
-44.878
-46.991
-49.203
-51.509
-53.901
-56.374
-58.92
-61.531
-64.199
-66.913
-69.664
-72.442
-75.239
-78.044
-80.849
-83.641
-86.411
-89.15
-91.851
-94.504
-97.099
-99.63
-102.09
-104.477
-106.788
-109.024
-111.182
-113.263
-115.27
-117.207
-119.077
-120.879
-122.613
-124.279
-125.882
-127.429
-128.928
-130.385
-131.808
-133.202
-134.576
-135.942
-137.301
-138.648
-139.977
-141.289
-142.593
-143.913
-145.269
-146.666
-148.115
-149.62
-151.176
-152.777
-154.394
-155.972
-157.464
-158.829
-160.038
-161.087
-161.955
-162.603
-162.998
-163.075
-162.793
-162.141
-161.082
-159.596
-157.736
-155.571
-153.235
-150.931
-148.777
-146.894
-145.448
-144.548
-144.343
-144.99
-146.537
-149.123
-153.013
-158.3
-164.965
-172.811
-181.185
-189.412
-196.963
-202.999
-206.562
-207.072
-204.324
-198.794
-191.856
-185.131
-180.05
-178.21
-181.59
-190.065
-201.09
-212.101
-219.071
-221.629
-224.276
-225.635
-220.206
-196.354
-136.091
-33.4
106.497
271.487
442.771
609.288
766.494
906.051
1015.482
1077.763
1072.847
990.406
834.231
613.9
350.713
72.462
-194.705
-419.293
-580.221
-672.653
-700.866
-683.625
-639.227
-579.743
-517.444
-457.166
-403.468
-359.948
-322.594
-289.666
-259.547
-232.106
-212.554
-202.985
-202.625
-208.662
-215.678
-219.842
-219.227
-213.183
-202.299
-187.317
-169.356
-149.994
-130.772
-113.384
-99.096
-88.353
-81.284
-77.625
-76.715
-77.838
-80.151
-82.69
-84.846
-86.324
-86.932
-86.671
-85.561
-83.531
-80.602
-76.812
-72.079
-66.347
-59.607
-51.859
-43.245
-33.999
-24.321
-14.41
-4.429
5.54
15.426
25.178
34.799
44.291
53.659
62.901
71.962
80.787
89.36
97.679
105.786
113.757
121.647
129.504
137.382
145.307
153.292
161.338
169.417
177.488
185.519
193.483
201.365
209.156
216.839
224.391
231.786
238.993
245.982
252.723
259.179
265.315
271.101
276.512
281.528
286.134
290.315
294.054
297.336
300.147
302.472
304.3
305.619
306.416
306.685
306.42
305.621
304.291
302.434
300.058
297.174
293.797
289.943
285.631
280.884
275.724
270.177
264.271
258.036
251.503
244.703
237.669
230.436
223.039
215.511
207.89
200.208
192.501
184.802
177.144
169.558
162.075
154.724
147.532
140.527
133.733
127.174
120.871
114.841
109.1
103.662
98.539
93.737
89.262
85.118
81.305
77.822
74.664
71.826
69.299
67.074
65.138
63.48
62.083
60.933
60.012
59.303
58.789
58.449
58.265
58.217
58.286
58.45
58.691
58.988
59.323
59.676
60.031
60.37
60.676
60.934
61.131
61.252
61.287
61.225
61.057
60.774
60.37
59.84
59.18
58.387
57.462
56.403
55.213
53.895
52.453
50.894
49.223
47.447
45.575
43.618
41.586
39.491
37.345
35.162
32.957
30.746
28.543
26.366
24.228
22.148
20.14
18.222
16.41
14.716
13.156
11.744
10.491
9.411
8.515
7.812
7.31
7.017
6.94
7.083
7.449
8.034
8.835
9.847
11.065
12.48
14.081
15.857
17.797
19.893
22.136
24.513
27.01
29.605
32.28
35.018
37.8
40.605
43.409
46.192
48.941
51.652
54.317
56.922
59.443
61.844
64.097
66.183
68.08
69.77
71.244
72.493
73.536
74.415
75.164
75.813
76.371
76.837
77.233
77.596
77.972
78.423
78.985
79.686
80.574
81.673
82.944
84.322
85.699
86.943
87.968
88.7
89.028
88.845
88.097
86.735
84.62
81.534
77.295
71.755
64.999
57.488
49.547
41.481
34.263
28.871
25.876
26.126
28.391
30.303
31.795
31.647
30.203
29.632
27.601
23.112
14.63
-2.481
-29.355
-66.11
-106.594
-135.543
-133.512
-80.199
31.391
194.791
394.099
603.5
804.368
982.46
1120.135
1207.917
1236.596
1198.405
1100.904
952.816
761.628
542.2
306.415
70.432
-138.692
-300.696
-405.724
-454.566
-464.538
-455.154
-435.953
-410.438
-375.938
-328.156
-269.954
-207.891
-148.208
-96.988
-57.616
-30.736
-15.766
-10.993
-14.044
-22.557
-34.659
-48.555
-61.881
-72.423
-79.007
-81.359
-80.021
-75.954
-69.84
-62.312
-54.537
-47.853
-42.999
-40.177
-39.122
-39.214
-40.05
-41.383
-42.771
-43.685
-43.803
-42.969
-41.219
-38.767
-35.741
-32.189
-28.194
-23.839
-19.215
-14.422
-9.537
-4.616
0.299
5.174
9.988
14.722
19.372
23.949
28.474
32.987
37.513
42.063
46.643
51.25
55.891
60.582
65.341
70.183
75.117
80.15
85.287
90.533
95.887
101.339
106.874
112.47
118.11
123.778
129.462
135.144
140.808
146.434
152
157.489
162.877
168.14
173.252
178.184
182.91
187.407
191.651
195.618
199.287
202.637
205.648
208.304
210.588
212.485
213.982
215.067
215.731
215.967
215.768
215.131
214.056
212.543
210.597
208.224
205.433
202.235
198.643
194.673
190.341
185.667
180.672
175.377
169.807
163.985
157.94
151.698
145.286
138.732
132.065
125.311
118.499
111.655
104.805
97.973
91.184
84.461
77.825
71.296
64.894
58.636
52.538
46.615
40.878
35.338
30.005
24.886
19.986
15.308
10.856
6.628
2.623
-1.161
-4.73
-8.088
-11.243
-14.204
-16.978
-19.576
-22.009
-24.29
-26.429
-28.44
-30.335
-32.129
-33.833
-35.462
-37.029
-38.544
-40.021
-41.471
-42.906
-44.335
-45.769
-47.216
-48.683
-50.18
-51.712
-53.284
-54.902
-56.568
-58.285
-60.054
-61.876
-63.747
-65.666
-67.628
-69.63
-71.666
-73.73
-75.814
-77.91
-80.006
-82.094
-84.162
-86.197
-88.185
-90.111
-91.962
-93.722
-95.378
-96.913
-98.313
-99.561
-100.644
-101.547
-102.259
-102.766
-103.054
-103.113
-102.933
-102.507
-101.827
-100.889
-99.687
-98.222
-96.497
-94.517
-92.289
-89.819
-87.118
-84.196
-81.067
-77.744
-74.238
-70.561
-66.729
-62.759
-58.677
-54.508
-50.276
-46.004
-41.718
-37.446
-33.219
-29.06
-24.98
-20.994
-17.123
-13.394
-9.855
-6.54
-3.467
-0.654
1.881
4.133
6.098
7.796
9.277
10.583
11.744
12.778
13.668
14.424
15.076
15.664
16.25
16.869
17.512
18.193
18.944
19.735
20.506
21.127
21.391
21.176
20.41
19.009
16.894
13.939
10.003
5.012
-1.12
-8.539
-17.334
-27.503
-38.83
-50.756
-62.595
-73.69
-83.294
-90.599
-94.899
-95.867
-94.054
-90.668
-87.087
-84.805
-85.167
-89.642
-100.117
-115.905
-132.713
-146.471
-152.739
-151.543
-148.925
-144.381
-131.861
-99.104
-28.165
86.828
239.732
417.118
599.181
772.161
927.398
1053.093
1136.798
1162.949
1116.465
994.485
802.789
556.09
279.41
-1.126
-256.338
-458.04
-591.815
-656.998
-665.733
-640.969
-600.234
-550.297
-496.281
-436.526
-371.233
-309.301
-252.603
-203.956
-167.422
-140.137
-123.541
-118.822
-123.363
-135.632
-152.223
-168.875
-182.332
-190.603
-193.192
-190.33
-182.959
-172.372
-159.593
-146.105
-133.86
-123.898
-116.656
-112.2
-109.926
-109.198
-109.526
-110.228
-110.544
-110.062
-108.582
-106.056
-102.655
-98.503
-93.666
-88.259
-82.395
-76.136
-69.531
-62.622
-55.436
-48.042
-40.545
-33.015
-25.5
-18.03
-10.61
-3.242
4.076
11.359
18.637
25.926
33.225
40.533
47.842
55.152
62.474
69.817
77.19
84.598
92.041
99.515
107.01
114.51
121.994
129.434
136.802
144.072
151.22
158.224
165.06
171.703
178.127
184.306
190.215
195.828
201.116
206.052
210.609
214.762
218.49
221.772
224.589
226.923
228.76
230.089
230.9
231.187
230.944
230.168
228.862
227.028
224.672
221.805
218.436
214.582
210.261
205.492
200.3
194.711
188.751
182.453
175.847
168.967
161.85
154.529
147.044
139.431
131.729
123.977
116.213
108.476
100.804
93.231
85.793
78.522
71.451
64.607
58.018
51.707
45.698
40.009
34.657
29.658
25.022
20.759
16.874
13.37
10.248
7.503
5.132
3.125
1.473
0.162
-0.823
-1.499
-1.884
-1.999
-1.865
-1.507
-0.949
-0.215
0.667
1.673
2.776
3.949
5.168
6.407
7.641
8.848
10.004
11.089
12.083
12.966
13.721
14.334
14.789
15.075
15.182
15.101
14.826
14.353
13.679
12.802
11.722
10.443
8.967
7.299
5.447
3.418
1.222
-1.129
-3.621
-6.241
-8.975
-11.806
-14.72
-17.697
-20.723
-23.778
-26.845
-29.907
-32.945
-35.94
-38.874
-41.731
-44.492
-47.143
-49.668
-52.051
-54.281
-56.345
-58.234
-59.939
-61.449
-62.758
-63.859
-64.748
-65.421
-65.875
-66.108
-66.124
-65.926
-65.525
-64.929
-64.15
-63.2
-62.092
-60.843
-59.469
-57.983
-56.394
-54.715
-52.961
-51.15
-49.303
-47.438
-45.571
-43.718
-41.898
-40.128
-38.422
-36.788
-35.223
-33.731
-32.323
-31.021
-29.862
-28.871
-28.064
-27.449
-27.04
-26.839
-26.844
-27.026
-27.333
-27.715
-28.135
-28.572
-29.015
-29.434
-29.787
-30.009
-30.027
-29.791
-29.266
-28.425
-27.262
-25.806
-24.108
-22.276
-20.468
-18.837
-17.547
-16.761
-16.619
-17.244
-18.777
-21.418
-25.322
-30.555
-36.996
-44.229
-51.736
-59.051
-65.641
-70.847
-74.111
-75.035
-73.796
-71.557
-69.707
-69.401
-71.958
-78.603
-90.202
-107.702
-129.32
-149.373
-162.428
-163.286
-150.9
-132.026
-110.563
-85.52
-50.335
13.549
120.872
275.54
473.8
694.339
909.103
1091.602
1213.729
1256.649
1212.447
1083.056
881.454
628.1
347.65
65.611
-190.512
-397.56
-543.033
-625.207
-654.672
-645.934
-610.088
-554.414
-485.101
-411.859
-345.234
-293.423
-257.7
-230.885
-206.644
-182.847
-161.134
-147.284
-144.349
-150.642
-163.058
-177.164
-189.018
-196.697
-199.512
-197.621
-191.815
-183.13
-172.391
-160.441
-148.561
-138.049
-129.682
-123.765
-120.109
-118.175
-117.47
-117.54
-117.833
-117.771
-116.999
-115.367
-112.863
-109.612
-105.728
-101.279
-96.355
-91.064
-85.469
-79.612
-73.541
-67.282
-60.901
-54.49
-48.105
-41.786
-35.556
-29.417
-23.368
-17.409
-11.514
-5.649
0.204
6.059
11.921
17.79
23.681
29.611
35.593
41.641
47.761
53.958
60.229
66.571
72.968
79.402
85.85
92.285
98.683
105.023
111.279
117.426
123.439
129.287
134.944
140.38
145.566
150.467
155.054
159.294
163.157
166.616
169.645
172.217
174.311
175.904
176.978
177.519
177.511
176.944
175.809
174.103
171.824
168.975
165.56
161.588
157.071
152.026
146.47
140.427
133.921
126.978
119.631
111.911
103.853
95.495
86.873
78.028
69.001
59.832
50.564
41.24
31.9
22.588
13.342
4.203
-4.792
-13.606
-22.206
-30.56
-38.639
-46.415
-53.865
-60.967
-67.704
-74.06
-80.023
-85.585
-90.739
-95.483
-99.817
-103.744
-107.271
-110.405
-113.157
-115.541
-117.573
-119.269
-120.65
-121.735
-122.546
-123.107
-123.44
-123.571
-123.525
-123.326
-123
-122.571
-122.065
-121.504
-120.913
-120.312
-119.723
-119.165
-118.654
-118.208
-117.841
-117.565
-117.39
-117.327
-117.382
-117.561
-117.869
-118.307
-118.876
-119.575
-120.401
-121.352
-122.421
-123.602
-124.887
-126.266
-127.731
-129.271
-130.876
-132.533
-134.229
-135.953
-137.69
-139.428
-141.152
-142.849
-144.505
-146.107
-147.642
-149.1
-150.47
-151.74
-152.902
-153.948
-154.873
-155.672
-156.34
-156.874
-157.273
-157.537
-157.668
-157.669
-157.543
-157.295
-156.934
-156.472
-155.922
-155.298
-154.615
-153.889
-153.139
-152.382
-151.636
-150.916
-150.234
-149.607
-149.052
-148.591
-148.247
-148.039
-147.986
-148.105
-148.417
-148.94
-149.685
-150.651
-151.84
-153.256
-154.914
-156.842
-159.064
-161.586
-164.419
-167.567
-171.021
-174.771
-178.781
-182.99
-187.343
-191.792
-196.297
-200.848
-205.411
-209.939
-214.382
-218.661
-222.715
-226.516
-230.01
-233.161
-236.009
-238.608
-241.076
-243.601
-246.279
-249.208
-252.544
-256.384
-260.862
-266.135
-272.239
-279.291
-287.568
-297.155
-307.981
-319.81
-331.907
-343.51
-354.093
-362.851
-368.818
-371.493
-370.804
-367.34
-362.704
-358.712
-356.842
-358.609
-365.904
-378.676
-393.973
-408.328
-417.125
-418.17
-415.221
-410.086
-398.868
-373.253
-317.946
-219.71
-78.344
98.755
296.797
495.875
681.511
837.898
947.255
993.701
961.033
843.739
647.159
388.354
99.159
-187.307
-435.249
-616.351
-725.113
-768.685
-769.432
-754.205
-733.666
-709.782
-677.497
-628.697
-565.651
-496.466
-428.998
-371.349
-327.751
-298.107
-281.289
-275.205
-276.804
-282.96
-291.34
-299.53
-304.769
-305.713
-301.991
-293.759
-282.327
-269.349
-255.922
-243.382
-233.316
-226.406
-222.809
-222.335
-224.225
-227.718
-232.226
-237.052
-241.45
-244.991
-247.416
-248.586
-248.51
-247.113
-244.323
-240.151
-234.676
-228.015
-220.314
-211.764
-202.527
-192.785
-182.727
-172.481
-162.134
-151.739
-141.32
-130.889
-120.487
-110.172
-99.976
-89.937
-80.074
-70.379
-60.828
-51.366
-41.933
-32.47
-22.935
-13.306
-3.576
6.244
16.13
26.043
35.949
45.82
55.631
65.362
74.991
84.492
93.835
102.983
111.901
120.551
128.898
136.908
144.552
151.803
158.639
165.047
171.011
176.518
181.553
186.1
190.149
193.686
196.703
199.191
201.144
202.558
203.436
203.782
203.602
202.907
201.709
200.023
197.866
195.258
192.223
188.783
184.965
180.797
176.308
171.528
166.491
161.228
155.773
150.159
144.422
138.595
132.712
126.806
120.909
115.051
109.264
103.575
98.013
92.604
87.375
82.348
77.545
72.987
68.691
64.674
60.947
57.523
54.41
51.615
49.141
46.992
45.167
43.665
42.484
41.616
41.057
40.796
40.825
41.132
41.706
42.532
43.598
44.888
46.389
48.085
49.96
51.999
54.185
56.503
58.937
61.471
64.088
66.773
69.51
72.284
75.08
77.885
80.686
83.467
86.219
88.929
91.587
94.181
96.701
99.14
101.487
103.736
105.881
107.914
109.832
111.628
113.302
114.85
116.271
117.562
118.724
119.756
120.658
121.434
122.085
122.615
123.027
123.328
123.525
123.625
123.637
123.567
123.426
123.221
122.964
122.664
122.331
121.975
121.606
121.237
120.88
120.546
120.244
119.985
119.777
119.63
119.549
119.538
119.598
119.731
119.937
120.22
120.576
121.002
121.491
122.038
122.64
123.291
123.985
124.71
125.452
126.201
126.95
127.692
128.421
129.122
129.776
130.378
130.931
131.438
131.9
132.308
132.639
132.879
133.027
133.075
133.021
132.857
132.568
132.168
131.691
131.171
130.653
130.156
129.662
129.161
128.625
128.047
127.459
126.879
126.317
125.814
125.375
124.999
124.728
124.455
123.93
122.845
120.742
117.21
112.039
105.095
96.331
86.047
74.727
63.101
52.307
43.436
37.429
34.978
36.292
40.962
48.242
57.064
65.804
72.483
74.773
70.688
59.188
40.096
13.867
-18.726
-56.386
-94.91
-127.294
-147.27
-149.408
-134.441
-108.896
-74.936
-31.867
29.467
125.777
264.976
446.911
656.087
863.94
1045.048
1175.482
1244.141
1249.058
1187.112
1063.165
879.897
643.367
373.604
94.142
-163.852
-368.719
-505.433
-575.22
-593.745
-583.716
-559.07
-520.636
-464.948
-391.488
-308.946
-233.946
-178.78
-145.791
-127.955
-115.089
-101.092
-86.018
-74.955
-71.393
-75.392
-84.542
-93.669
-99.091
-99.874
-96.055
-88.629
-78.701
-66.724
-53.305
-39.721
-27.329
-16.928
-8.779
-2.688
1.873
5.369
8.146
10.725
13.716
17.457
22.102
27.663
33.968
40.87
48.302
56.16
64.325
72.727
81.285
89.923
98.594
107.209
115.692
124.002
132.099
139.961
147.59
154.981
162.151
169.136
175.959
182.629
189.15
195.521
201.746
207.846
213.835
219.728
225.534
231.256
236.9
242.467
247.952
253.341
258.618
263.76
268.75
273.574
278.218
282.667
286.904
290.912
294.674
298.172
301.39
304.305
306.896
309.143
311.026
312.53
313.637
314.332
314.601
314.432
313.814
312.74
311.201
309.192
306.709
303.751
300.32
296.42
292.056
287.236
281.973
276.278
270.168
263.662
256.78
249.542
241.974
234.102
225.952
217.554
208.938
200.134
191.174
182.09
172.915
163.683
154.426
145.176
135.966
126.827
117.788
108.88
100.131
91.566
83.211
75.091
67.226
59.636
52.339
45.35
38.683
32.348
26.355
20.71
15.417
10.478
5.894
1.661
-2.225
-5.769
-8.981
-11.871
-14.449
-16.729
-18.724
-20.449
-21.921
-23.155
-24.17
-24.982
-25.611
-26.075
-26.394
-26.586
-26.671
-26.668
-26.594
-26.469
-26.309
-26.132
-25.953
-25.786
-25.647
-25.547
-25.499
-25.514
-25.602
-25.769
-26.024
-26.372
-26.816
-27.36
-28.003
-28.745
-29.586
-30.522
-31.55
-32.667
-33.866
-35.142
-36.487
-37.893
-39.352
-40.853
-42.386
-43.938
-45.498
-47.056
-48.597
-50.111
-51.584
-53.006
-54.364
-55.649
-56.851
-57.959
-58.963
-59.857
-60.634
-61.289
-61.818
-62.216
-62.483
-62.621
-62.638
-62.54
-62.334
-62.03
-61.638
-61.17
-60.639
-60.055
-59.424
-58.755
-58.057
-57.346
-56.637
-55.948
-55.292
-54.682
-54.136
-53.669
-53.294
-53.019
-52.839
-52.756
-52.777
-52.921
-53.223
-53.705
-54.383
-55.267
-56.36
-57.657
-59.15
-60.805
-62.563
-64.373
-66.188
-67.985
-69.754
-71.467
-73.085
-74.547
-75.774
-76.714
-77.316
-77.545
-77.401
-76.92
-76.167
-75.267
-74.351
-73.541
-72.993
-72.826
-73.153
-74.109
-75.761
-78.255
-81.888
-86.819
-93.035
-100.343
-108.151
-115.765
-122.671
-128.14
-131.199
-131.249
-128.168
-122.517
-115.841
-110.122
-107.099
-108.345
-115.767
-129.425
-146.663
-164.552
-178.888
-187.505
-193.297
-196.214
-191.004
-168.243
-112.577
-13.793
125.548
296.837
485.659
676.75
861.249
1024.428
1146.507
1209.178
1192.68
1093.642
923.181
694.758
432.568
158.465
-106.555
-331.156
-493.491
-585.111
-610.363
-594.043
-562.597
-529.127
-497.737
-462.936
-416.938
-361.031
-301.23
-244.102
-196.35
-161.078
-138.209
-126.499
-123.762
-127.667
-136.292
-148.141
-161.597
-174.353
-184.251
-190.239
-192.154
-190.531
-186.18
-179.625
-171.45
-162.856
-155.228
-149.315
-145.3
-142.894
-141.497
-140.738
-140.38
-139.969
-138.956
-137.007
-133.967
-129.888
-124.999
-119.431
-113.239
-106.502
-99.307
-91.747
-83.928
-75.933
-67.82
-59.643
-51.439
-43.244
-35.088
-26.985
-18.938
-10.932
-2.936
5.066
13.078
21.092
29.098
37.09
45.077
53.063
61.055
69.051
77.045
85.033
93.011
100.968
108.884
116.737
124.495
132.133
139.63
146.967
154.12
161.069
167.789
174.257
180.45
186.345
191.915
197.134
201.975
206.412
210.423
213.986
217.08
219.687
221.79
223.374
224.425
224.934
224.891
224.291
223.129
221.404
219.118
216.276
212.886
208.958
204.504
199.541
194.088
188.166
181.798
175.01
167.83
160.287
152.414
144.244
135.81
127.149
118.297
109.293
100.174
90.979
81.746
72.514
63.318
54.198
45.187
36.32
27.631
19.151
10.909
2.934
-4.75
-12.12
-19.156
-25.838
-32.154
-38.089
-43.633
-48.781
-53.527
-57.869
-61.809
-65.347
-68.491
-71.247
-73.626
-75.638
-77.298
-78.62
-79.62
-80.317
-80.728
-80.876
-80.779
-80.461
-79.942
-79.247
-78.399
-77.421
-76.338
-75.171
-73.944
-72.68
-71.399
-70.123
-68.87
-67.659
-66.508
-65.431
-64.445
-63.561
-62.792
-62.148
-61.637
-61.267
-61.043
-60.969
-61.047
-61.278
-61.662
-62.199
-62.886
-63.72
-64.695
-65.805
-67.044
-68.404
-69.874
-71.444
-73.102
-74.835
-76.631
-78.476
-80.357
-82.26
-84.17
-86.074
-87.957
-89.809
-91.617
-93.368
-95.051
-96.657
-98.178
-99.607
-100.939
-102.169
-103.295
-104.318
-105.241
-106.067
-106.8
-107.448
-108.014
-108.509
-108.942
-109.317
-109.643
-109.928
-110.182
-110.42
-110.657
-110.908
-111.19
-111.519
-111.909
-112.379
-112.942
-113.6
-114.357
-115.219
-116.196
-117.314
-118.593
-120.039
-121.657
-123.452
-125.418
-127.541
-129.789
-132.1
-134.421
-136.707
-138.925
-141.064
-143.103
-145.004
-146.72
-148.195
-149.381
-150.258
-150.806
-150.977
-150.772
-150.255
-149.54
-148.819
-148.254
-147.917
-147.888
-148.28
-149.198
-150.789
-153.176
-156.373
-160.473
-165.708
-172.163
-179.788
-188.297
-196.936
-204.907
-211.602
-216.204
-217.753
-215.737
-210.113
-201.466
-191.363
-181.617
-173.741
-169.476
-170.959
-177.775
-186.717
-194.754
-197.481
-194.885
-192.626
-189.816
-180.557
-152.066
-84.736
28.516
182.041
361.888
546.788
723.673
886.022
1024.524
1128.138
1178.486
1156.204
1054.686
877.657
642.065
375.862
105.847
-139.814
-337.626
-477.414
-557.574
-587.85
-584.755
-559.911
-523.219
-482.293
-440.517
-404.238
-375.533
-349.282
-322.044
-289.122
-250.553
-214.294
-185.181
-165.504
-154.892
-149.257
-146.759
-147.262
-150.085
-154.147
-157.674
-159.287
-158.756
-156.42
-152.56
-147.316
-140.929
-134.232
-128.391
-124.061
-121.341
-119.925
-119.329
-119.248
-119.467
-119.581
-119.056
-117.551
-114.901
-111.106
-106.272
-100.416
-93.552
-85.795
-77.348
-68.409
-59.133
-49.642
-40.025
-30.38
-20.791
-11.306
-1.931
7.347
16.528
25.606
34.553
43.331
51.923
60.342
68.616
76.779
84.858
92.87
100.843
108.805
116.775
124.75
132.707
140.617
148.456
156.208
163.861
171.404
178.822
186.094
193.2
200.12
206.834
213.321
219.557
225.511
231.157
236.476
241.45
246.064
250.302
254.145
257.577
260.583
263.152
265.271
266.925
268.103
268.794
268.994
268.698
267.905
266.615
264.831
262.558
259.805
256.583
252.904
248.784
244.238
239.287
233.951
228.254
222.221
215.88
209.258
202.386
195.298
188.025
180.603
173.067
165.451
157.793
150.127
142.489
134.913
127.435
120.089
112.907
105.922
99.166
92.667
86.451
80.545
74.972
69.752
64.903
60.441
56.38
52.731
49.502
46.7
44.327
42.385
40.871
39.78
39.106
38.839
38.967
39.476
40.348
41.566
43.109
44.957
47.085
49.469
52.083
54.9
57.892
61.033
64.292
67.642
71.052
74.495
77.944
81.369
84.746
88.046
91.245
94.32
97.247
100.005
102.574
104.937
107.078
108.983
110.641
112.044
113.183
114.055
114.655
114.984
115.044
114.837
114.37
113.649
112.684
111.487
110.071
108.45
106.64
104.657
102.519
100.244
97.85
95.355
92.779
90.138
87.453
84.743
82.027
79.321
76.642
74.007
71.429
68.924
66.5
64.164
61.918
59.767
57.711
55.749
53.878
52.092
50.386
48.757
47.203
45.717
44.29
42.907
41.552
40.213
38.874
37.521
36.136
34.703
33.213
31.666
30.059
28.386
26.633
24.767
22.764
20.61
18.288
15.787
13.107
10.251
7.243
4.14
0.983
-2.185
-5.335
-8.461
-11.54
-14.533
-17.407
-20.101
-22.567
-24.787
-26.714
-28.315
-29.635
-30.734
-31.729
-32.81
-34.08
-35.644
-37.67
-40.265
-43.561
-47.706
-52.73
-58.735
-65.982
-74.563
-84.433
-95.399
-106.81
-117.952
-128.309
-137.083
-143.298
-146.405
-146.277
-143.375
-139.089
-135.193
-133.287
-135.023
-142.525
-155.668
-171.223
-186.107
-196.314
-200.759
-204.41
-208.349
-207.198
-190.625
-141.196
-46.218
92.927
267.328
460.51
652.626
830.089
977.268
1076.666
1113.607
1073.465
952.499
757.824
504.795
220.355
-65.926
-322.067
-520.457
-649.715
-712.893
-727.275
-713.398
-683.572
-642.984
-592.925
-538.501
-489.155
-452.601
-429.934
-413.404
-394.224
-368.732
-338.871
-311.317
-290.478
-276.112
-266.538
-259.407
-253.304
-248.055
-243.175
-237.82
-231.76
-225.375
-218.905
-212.421
-205.982
-199.618
-193.792
-189.414
-186.799
-185.712
-185.835
-186.698
-188.003
-189.638
-191.273
-192.36
-192.529
-191.553
-189.319
-185.907
-181.358
-175.681
-168.99
-161.479
-153.396
-144.981
-136.429
-127.876
-119.408
-111.086
-102.956
-95.053
-87.393
-80.005
-72.916
-66.139
-59.697
-53.592
-47.806
-42.299
-37
-31.832
-26.73
-21.645
-16.547
-11.423
-6.268
-1.085
4.102
9.277
14.427
19.536
24.6
29.609
34.548
39.394
44.124
48.707
53.114
57.317
61.289
65.004
68.439
71.575
74.397
76.89
79.039
80.827
82.237
83.252
83.858
84.041
83.785
83.08
81.917
80.29
78.199
75.644
72.626
69.151
65.228
60.868
56.085
50.895
45.316
39.371
33.082
26.475
19.579
12.423
5.038
-2.542
-10.282
-18.149
-26.104
-34.112
-42.136
-50.14
-58.088
-65.945
-73.677
-81.25
-88.631
-95.791
-102.699
-109.327
-115.649
-121.644
-127.29
-132.569
-137.465
-141.967
-146.064
-149.75
-153.019
-155.871
-158.307
-160.33
-161.946
-163.166
-163.998
-164.457
-164.559
-164.321
-163.762
-162.903
-161.768
-160.379
-158.762
-156.943
-154.949
-152.806
-150.54
-148.18
-145.751
-143.28
-140.794
-138.315
-135.87
-133.479
-131.166
-128.952
-126.855
-124.893
-123.081
-121.435
-119.966
-118.686
-117.603
-116.725
-116.057
-115.601
-115.362
-115.338
-115.529
-115.932
-116.541
-117.35
-118.351
-119.535
-120.889
-122.401
-124.055
-125.838
-127.732
-129.723
-131.791
-133.919
-136.09
-138.285
-140.49
-142.688
-144.86
-146.99
-149.063
-151.063
-152.98
-154.799
-156.51
-158.102
-159.568
-160.906
-162.115
-163.193
-164.139
-164.952
-165.632
-166.183
-166.611
-166.917
-167.102
-167.173
-167.137
-167.007
-166.796
-166.518
-166.181
-165.796
-165.371
-164.919
-164.446
-163.953
-163.445
-162.929
-162.411
-161.909
-161.433
-160.985
-160.572
-160.194
-159.838
-159.491
-159.122
-158.686
-158.155
-157.505
-156.721
-155.79
-154.676
-153.344
-151.782
-149.995
-148.014
-145.854
-143.468
-140.807
-137.911
-134.875
-131.882
-129.081
-126.443
-124.016
-122.057
-120.98
-121.263
-123.133
-126.345
-130.628
-136.108
-142.745
-150.112
-157.187
-162.298
-164.269
-163.032
-158.821
-151.368
-140.638
-127.213
-112.714
-100.128
-92.199
-90.203
-94.625
-106.619
-125.511
-147.742
-169.505
-185.376
-192.948
-196.541
-197.521
-191.286
-168.348
-112.361
-11.772
131.124
306.962
500.362
693.634
874.797
1029.174
1138.032
1183.602
1149.423
1031.113
837.278
586.949
308.344
29.575
-221.559
-422.258
-561.626
-640.545
-671.584
-673.014
-660.409
-640.008
-610.967
-570.71
-517.028
-453.335
-386.853
-323.627
-269.312
-227.709
-199.235
-182.688
-176.2
-177.211
-183.061
-191.859
-201.219
-207.961
-210.318
-207.718
-200.167
-188.732
-174.793
-159.353
-143.827
-130.074
-119.022
-110.9
-105.664
-102.664
-101.2
-100.789
-100.738
-100.231
-98.851
-96.422
-92.857
-88.291
-82.767
-76.189
-68.613
-60.162
-50.961
-41.207
-31.049
-20.566
-9.9
0.785
11.375
21.772
31.938
41.905
51.671
61.218
70.525
79.536
88.226
96.599
104.672
112.491
120.102
127.537
134.838
142.055
149.221
156.357
163.459
170.496
177.443
184.284
191.007
197.609
204.08
210.404
216.566
222.546
228.326
233.886
239.202
244.246
248.994
253.421
257.512
261.255
264.639
267.65
270.275
272.504
274.325
275.731
276.713
277.262
277.371
277.036
276.259
275.042
273.389
271.308
268.809
265.903
262.604
258.93
254.899
250.532
245.849
240.876
235.638
230.163
224.478
218.614
212.601
206.472
200.257
193.99
187.703
181.428
175.196
169.037
162.981
157.055
151.285
145.697
140.314
135.157
130.246
125.597
121.226
117.144
113.36
109.881
106.713
103.855
101.308
99.068
97.13
95.484
94.122
93.032
92.198
91.606
91.237
91.072
91.091
91.271
91.59
92.024
92.548
93.138
93.769
94.418
95.059
95.669
96.226
96.708
97.093
97.362
97.498
97.483
97.302
96.942
96.391
95.638
94.678
93.503
92.109
90.496
88.664
86.615
84.353
81.886
79.221
76.367
73.337
70.144
66.805
63.335
59.753
56.079
52.334
48.541
44.723
40.902
37.103
33.348
29.662
26.069
22.592
19.252
16.069
13.066
10.261
7.674
5.319
3.21
1.36
-0.219
-1.518
-2.532
-3.261
-3.705
-3.868
-3.754
-3.369
-2.724
-1.832
-0.705
0.647
2.212
3.976
5.922
8.025
10.263
12.612
15.049
17.551
20.093
22.645
25.191
27.719
30.217
32.669
35.05
37.32
39.444
41.402
43.168
44.725
46.066
47.185
48.102
48.859
49.491
50.03
50.497
50.884
51.212
51.514
51.825
52.212
52.723
53.376
54.225
55.307
56.571
57.953
59.334
60.529
61.455
62.036
62.125
61.625
60.45
58.497
55.737
52.041
47.108
40.777
33.062
24.224
14.789
5.268
-3.624
-10.97
-15.872
-17.442
-16.559
-14.804
-12.403
-10.819
-8.791
-5.069
-4.333
-7.584
-17.332
-36.224
-58.026
-82.034
-105.8
-119.966
-117.449
-82.136
-0.196
126.405
288.732
465.813
636.157
794.144
937.587
1066.639
1176.843
1246.457
1252.33
1176.729
1012.639
773.696
486.232
185.377
-91.224
-312.629
-460.156
-534.868
-552.209
-535.262
-506.493
-474.866
-440.329
-399.136
-346.223
-284.215
-220.423
-161.596
-114.522
-82.179
-63.526
-56.477
-58.265
-65.948
-77.099
-89.624
-100.926
-108.621
-111.673
-109.949
-103.983
-94.895
-83.77
-71.531
-59.519
-49.16
-41.148
-35.681
-32.569
-31.249
-31.181
-31.909
-32.843
-33.352
-33.094
-31.93
-29.847
-26.981
-23.439
-19.279
-14.601
-9.523
-4.113
1.573
7.483
13.582
19.797
26.031
32.222
38.329
44.328
50.22
56.005
61.687
67.289
72.844
78.368
83.872
89.359
94.83
100.297
105.775
111.277
116.815
122.397
128.026
133.701
139.415
145.157
150.907
156.646
162.348
167.994
173.565
179.043
184.406
189.636
194.708
199.603
204.297
208.767
212.987
216.931
220.575
223.896
226.872
229.484
231.712
233.538
234.948
235.929
236.47
236.562
236.197
235.37
234.08
232.326
230.111
227.441
224.323
220.766
216.785
212.394
207.611
202.454
196.945
191.106
184.962
178.539
171.865
164.967
157.876
150.622
143.235
135.748
128.194
120.602
113.005
105.433
97.916
90.482
83.159
75.972
68.945
62.101
55.46
49.042
42.862
36.935
31.274
25.889
20.788
15.976
11.458
7.234
3.304
-0.335
-3.687
-6.758
-9.556
-12.09
-14.372
-16.414
-18.228
-19.83
-21.235
-22.459
-23.519
-24.433
-25.217
-25.89
-26.469
-26.972
-27.416
-27.816
-28.188
-28.548
-28.91
-29.287
-29.692
-30.136
-30.627
-31.176
-31.789
-32.471
-33.228
-34.062
-34.973
-35.962
-37.029
-38.171
-39.386
-40.667
-42.009
-43.406
-44.85
-46.333
-47.844
-49.371
-50.903
-52.429
-53.938
-55.416
-56.851
-58.228
-59.536
-60.764
-61.902
-62.939
-63.863
-64.665
-65.338
-65.875
-66.272
-66.525
-66.63
-66.59
-66.409
-66.094
-65.654
-65.099
-64.438
-63.683
-62.846
-61.942
-60.985
-59.989
-58.968
-57.939
-56.923
-55.944
-55.024
-54.184
-53.442
-52.817
-52.328
-51.992
-51.817
-51.814
-51.996
-52.382
-52.999
-53.868
-54.997
-56.397
-58.076
-60.029
-62.245
-64.7
-67.345
-70.142
-73.063
-76.085
-79.201
-82.385
-85.574
-88.725
-91.794
-94.756
-97.638
-100.41
-102.987
-105.371
-107.611
-109.817
-112.213
-114.865
-117.683
-120.799
-124.508
-129.12
-135.057
-142.383
-150.779
-160.297
-171.182
-183.199
-195.721
-207.619
-217.318
-224.151
-228.297
-229.409
-227.039
-221.463
-213.786
-206.321
-202.066
-202.812
-209.021
-221.525
-241.387
-267.047
-293.885
-316.398
-327.599
-326.005
-317.085
-300.549
-273.733
-228.017
-145.467
-20.512
144.469
341.222
546.224
741.512
910.491
1032.001
1096.835
1094.169
1016.239
869.048
656.634
394.687
111.926
-164.258
-398.04
-564.115
-662.014
-699.558
-697.945
-678.909
-644.502
-596.843
-539.139
-472.314
-409.377
-358.164
-315.573
-280.783
-249.202
-219.534
-197.756
-186.001
-184.517
-191.735
-202.941
-214.984
-225.5
-232.303
-234.838
-233.13
-227.571
-219.118
-208.572
-196.688
-184.712
-173.986
-165.274
-158.78
-154.249
-151.097
-148.814
-147.049
-145.324
-143.086
-140.02
-135.995
-131.028
-125.308
-118.977
-112.093
-104.744
-97.022
-88.989
-80.723
-72.294
-63.746
-55.158
-46.594
-38.092
-29.69
-21.406
-13.241
-5.195
2.746
10.614
18.419
26.164
33.846
41.456
48.998
56.482
63.917
71.31
78.663
85.977
93.25
100.481
107.657
114.762
121.776
128.674
135.436
142.048
148.49
154.747
160.798
166.624
172.205
177.522
182.555
187.281
191.677
195.721
199.394
202.676
205.552
208.006
210.023
211.591
212.7
213.342
213.512
213.204
212.416
211.148
209.403
207.186
204.502
201.362
197.776
193.758
189.325
184.494
179.287
173.725
167.832
161.635
155.162
148.441
141.502
134.377
127.099
119.7
112.214
104.676
97.118
89.575
82.078
74.659
67.35
60.178
53.172
46.358
39.758
33.397
27.293
21.466
15.931
10.702
5.792
1.208
-3.042
-6.952
-10.522
-13.75
-16.64
-19.195
-21.423
-23.332
-24.934
-26.241
-27.267
-28.03
-28.547
-28.838
-28.922
-28.822
-28.561
-28.16
-27.644
-27.034
-26.355
-25.63
-24.88
-24.127
-23.393
-22.697
-22.059
-21.497
-21.03
-20.672
-20.438
-20.342
-20.396
-20.61
-20.993
-21.552
-22.291
-23.214
-24.324
-25.62
-27.102
-28.765
-30.606
-32.615
-34.786
-37.108
-39.569
-42.154
-44.85
-47.64
-50.507
-53.435
-56.406
-59.401
-62.402
-65.393
-68.354
-71.271
-74.125
-76.899
-79.578
-82.148
-84.595
-86.906
-89.07
-91.075
-92.916
-94.59
-96.096
-97.432
-98.599
-99.6
-100.44
-101.125
-101.661
-102.048
-102.293
-102.399
-102.381
-102.255
-102.036
-101.738
-101.376
-100.967
-100.528
-100.08
-99.629
-99.178
-98.732
-98.303
-97.915
-97.61
-97.418
-97.357
-97.446
-97.695
-98.108
-98.692
-99.422
-100.249
-101.134
-102.04
-102.946
-103.857
-104.749
-105.582
-106.305
-106.837
-107.128
-107.157
-106.887
-106.314
-105.474
-104.421
-103.263
-102.156
-101.226
-100.613
-100.474
-100.948
-102.201
-104.384
-107.687
-112.41
-118.724
-126.601
-135.783
-145.68
-155.582
-164.899
-172.9
-178.638
-181.492
-181.329
-178.845
-175.701
-173.718
-174.409
-179.127
-189.179
-205.338
-227.293
-252.743
-277.59
-297.119
-306.321
-300.273
-274.05
-222.711
-144.298
-42.076
78.35
210.004
348.868
496.896
653.646
812.495
957.148
1061.595
1100.344
1057.045
930.117
731.2
482.325
210.129
-59.383
-299.743
-490.346
-619.422
-685.035
-695.984
-666.295
-612.06
-547.199
-484.592
-433.697
-396.296
-370.422
-347.808
-320.703
-289.278
-257.056
-230.767
-215.544
-210.818
-213.117
-218.262
-222.926
-224.817
-223.151
-218.007
-209.396
-198.021
-185.028
-171.235
-157.895
-146.636
-138.246
-133.051
-131
-131.407
-133.583
-136.959
-140.84
-144.51
-147.511
-149.576
-150.604
-150.655
-149.739
-147.824
-144.845
-140.776
-135.649
-129.515
-122.508
-114.812
-106.597
-98.054
-89.354
-80.598
-71.864
-63.199
-54.594
-46.038
-37.529
-29.065
-20.69
-12.464
-4.4
3.498
11.263
18.967
26.664
34.397
42.221
50.166
58.245
66.462
74.789
83.179
91.599
100.018
108.415
116.78
125.09
133.319
141.438
149.411
157.203
164.779
172.098
179.118
185.8
192.112
198.026
203.522
208.577
213.168
217.274
220.875
223.953
226.49
228.472
229.882
230.71
230.949
230.596
229.651
228.119
226.004
223.319
220.076
216.292
211.987
207.184
201.907
196.184
190.044
183.519
176.643
169.452
161.982
154.273
146.364
138.297
130.111
121.847
113.545
105.244
96.982
88.795
80.719
72.786
65.027
57.474
50.154
43.092
36.313
29.835
23.679
17.856
12.381
7.262
2.504
-1.889
-5.917
-9.582
-12.888
-15.843
-18.455
-20.737
-22.702
-24.366
-25.747
-26.863
-27.737
-28.388
-28.839
-29.113
-29.233
-29.22
-29.098
-28.887
-28.61
-28.286
-27.935
-27.576
-27.226
-26.902
-26.618
-26.389
-26.226
-26.14
-26.139
-26.231
-26.421
-26.711
-27.105
-27.603
-28.204
-28.905
-29.704
-30.592
-31.564
-32.608
-33.716
-34.874
-36.069
-37.286
-38.51
-39.725
-40.917
-42.069
-43.166
-44.19
-45.128
-45.963
-46.682
-47.272
-47.72
-48.013
-48.144
-48.103
-47.885
-47.485
-46.901
-46.131
-45.179
-44.049
-42.746
-41.278
-39.653
-37.882
-35.977
-33.951
-31.817
-29.59
-27.285
-24.921
-22.52
-20.107
-17.706
-15.341
-13.037
-10.816
-8.705
-6.725
-4.889
-3.211
-1.706
-0.396
0.685
1.508
2.057
2.323
2.296
1.978
1.379
0.522
-0.541
-1.766
-3.118
-4.574
-6.132
-7.791
-9.519
-11.277
-13.005
-14.645
-16.178
-17.591
-18.849
-19.95
-20.947
-21.94
-23.11
-24.623
-26.551
-28.946
-31.862
-35.37
-39.609
-44.706
-50.718
-57.745
-65.934
-75.381
-86.087
-97.737
-109.637
-120.986
-131.027
-139.013
-144.168
-145.861
-143.895
-139.001
-132.651
-126.486
-122.111
-120.851
-124.135
-133.547
-148.263
-164.235
-177.132
-182.013
-177.861
-168.804
-153.684
-127.493
-80.419
1.815
122.856
276.791
452.122
632.505
807.153
968.016
1102.328
1194.379
1223.876
1173.665
1040.813
834.118
574.805
291.158
9.881
-241.481
-441.554
-579.752
-655.059
-679.734
-669.188
-633.216
-578.513
-507.504
-426.066
-348.204
-285.231
-243.492
-220.981
-206.289
-192.18
-176.226
-160.043
-150.604
-150.258
-157.4
-169.426
-180.877
-188.239
-191.003
-189.111
-183.405
-175.004
-164.393
-152.274
-140.083
-129.242
-120.538
-114.261
-110.202
-107.814
-106.657
-106.31
-106.159
-105.574
-104.175
-101.794
-98.438
-94.256
-89.355
-83.796
-77.673
-71.09
-64.119
-56.819
-49.237
-41.41
-33.405
-25.315
-17.199
-9.103
-1.053
6.948
14.901
22.811
30.701
38.599
46.516
54.459
62.427
70.418
78.44
86.502
94.613
102.778
111.001
119.28
127.61
135.979
144.366
152.75
161.1
169.388
177.587
185.67
193.612
201.386
208.964
216.317
223.418
230.239
236.749
242.917
248.715
254.114
259.087
263.61
267.661
271.218
274.262
276.779
278.755
280.178
281.041
281.337
281.063
280.22
278.811
276.843
274.324
271.267
267.688
263.606
259.042
254.022
248.571
242.72
236.5
229.944
223.089
215.971
208.628
201.099
193.424
185.643
177.796
169.923
162.063
154.256
146.537
138.943
131.509
124.266
117.245
110.474
103.978
97.78
91.903
86.362
81.175
76.354
71.907
67.843
64.164
60.872
57.966
55.439
53.286
51.496
50.057
48.956
48.174
47.694
47.495
47.556
47.855
48.368
49.069
49.933
50.936
52.052
53.257
54.525
55.833
57.156
58.473
59.762
61.003
62.177
63.266
64.253
65.123
65.865
66.467
66.92
67.215
67.347
67.314
67.114
66.747
66.215
65.522
64.673
63.677
62.542
61.279
59.9
58.418
56.848
55.206
53.508
51.772
50.015
48.253
46.504
44.786
43.118
41.516
39.995
38.571
37.258
36.071
35.022
34.122
33.38
32.802
32.396
32.167
32.114
32.235
32.524
32.975
33.58
34.33
35.212
36.212
37.316
38.514
39.793
41.14
42.535
43.957
45.381
46.786
48.149
49.449
50.662
51.761
52.73
53.56
54.242
54.761
55.092
55.195
55.037
54.604
53.878
52.85
51.524
49.904
48.02
45.931
43.686
41.326
38.879
36.342
33.736
31.1
28.48
25.952
23.567
21.343
19.318
17.521
15.907
14.419
12.927
11.23
9.214
6.783
3.817
0.239
-4.087
-9.319
-15.509
-22.771
-31.312
-41.182
-52.347
-64.553
-77.018
-88.932
-99.665
-108.399
-114.316
-116.972
-116.201
-112.671
-108.271
-104.863
-103.759
-106.316
-113.737
-126.57
-144.638
-164.797
-180.779
-186.842
-178.949
-157.509
-125.465
-82.758
-26.241
52.44
160.856
300.1
465.621
643.722
817.819
968.961
1076.502
1125.671
1103.96
1010.733
855.939
650.426
414.685
168.434
-69.209
-270.456
-416.826
-501.892
-529.977
-522.71
-502.551
-480.236
-458.47
-431.859
-393.783
-345.859
-293.453
-241.998
-196.757
-159.785
-131.742
-113.209
-103.31
-100.508
-103.416
-110.939
-122.212
-136.067
-150.347
-162.717
-171.961
-177.867
-180.762
-181.01
-178.806
-174.541
-169.294
-164.437
-160.764
-158.442
-157.192
-156.606
-156.455
-156.574
-156.607
-156.036
-154.522
-151.959
-148.437
-144.167
-139.287
-133.853
-127.929
-121.627
-115.055
-108.311
-101.477
-94.569
-87.596
-80.578
-73.529
-66.463
-59.394
-52.311
-45.188
-38.013
-30.782
-23.501
-16.19
-8.86
-1.512
5.853
13.234
20.624
28.012
35.387
42.738
50.055
57.321
64.513
71.601
78.561
85.37
92.009
98.459
104.699
110.705
116.457
121.933
127.112
131.969
136.479
140.619
144.362
147.69
150.581
153.017
154.983
156.464
157.448
157.925
157.888
157.33
156.248
154.639
152.504
149.846
146.671
142.986
138.8
134.128
128.984
123.387
117.354
110.909
104.073
96.873
89.336
81.49
73.365
64.994
56.41
47.647
38.742
29.73
20.648
11.532
2.419
-6.656
-15.66
-24.558
-33.319
-41.912
-50.309
-58.482
-66.405
-74.055
-81.41
-88.45
-95.158
-101.519
-107.522
-113.155
-118.412
-123.287
-127.777
-131.881
-135.6
-138.938
-141.9
-144.493
-146.728
-148.617
-150.172
-151.41
-152.347
-153.004
-153.399
-153.554
-153.489
-153.226
-152.788
-152.196
-151.474
-150.643
-149.725
-148.742
-147.717
-146.669
-145.619
-144.587
-143.589
-142.643
-141.764
-140.966
-140.262
-139.663
-139.178
-138.815
-138.583
-138.486
-138.529
-138.714
-139.041
-139.508
-140.112
-140.849
-141.711
-142.689
-143.774
-144.955
-146.22
-147.557
-148.952
-150.391
-151.86
-153.343
-154.826
-156.294
-157.73
-159.119
-160.446
-161.696
-162.858
-163.917
-164.862
-165.683
-166.371
-166.924
-167.338
-167.608
-167.735
-167.718
-167.558
-167.261
-166.828
-166.261
-165.561
-164.735
-163.791
-162.744
-161.606
-160.388
-159.104
-157.768
-156.393
-155
-153.598
-152.187
-150.775
-149.373
-148.004
-146.708
-145.51
-144.427
-143.475
-142.664
-142.001
-141.491
-141.113
-140.822
-140.582
-140.357
-140.128
-139.901
-139.654
-139.353
-138.951
-138.375
-137.583
-136.556
-135.266
-133.704
-131.902
-129.914
-127.841
-125.834
-124.015
-122.517
-121.476
-120.99
-121.164
-122.074
-123.85
-126.746
-130.926
-136.39
-142.976
-150.297
-157.914
-165.497
-172.495
-178.023
-181.36
-182.178
-180.747
-177.933
-174.828
-172.454
-171.947
-175.077
-182.115
-190.846
-198.578
-202.03
-202.557
-207.003
-217.125
-228.939
-227.608
-189.718
-105.673
21.715
177.128
335.754
488.263
633.112
767.218
885.412
966.345
986.505
936.536
820.567
658.036
469.722
268.029
62.084
-138.692
-316.367
-449.678
-527.537
-551.98
-540.11
-513.55
-483.745
-453.558
-419.749
-377.681
-329.108
-279.042
-232.377
-194.09
-166.959
-151.064
-145.039
-146.611
-153.193
-162.843
-174.471
-186.505
-196.374
-202.446
-204.497
-202.83
-198.61
-193.147
-186.796
-180.045
-174.176
-170.003
-167.194
-166.363
-168.839
-173.093
-177.177
-177.693
-167.375
-146.334
-121.459
-99.471
-90.669
-96.698
-108.034
-117.295
-116.877
-104.94
-88.425
-71.79
-57.651
-46.848
-36.824
-26.408
-15.839
-5.183
5.196
15.236
25.259
35.374
45.54
55.76
66.068
76.465
86.898
97.308
107.624
117.808
127.891
137.883
147.771
157.548
167.193
176.687
186.015
195.154
204.076
212.762
221.193
229.347
237.209
244.76
251.983
258.861
265.371
271.49
277.195
282.461
287.27
291.604
295.446
298.779
301.588
303.862
305.589
306.762
307.374
307.42
306.894
305.796
304.127
301.891
299.094
295.745
291.853
287.433
282.5
277.073
271.174
264.825
258.051
250.881
243.342
235.466
227.286
218.835
210.148
201.261
192.213
183.041
173.784
164.479
155.166
145.882
136.664
127.549
118.571
109.765
101.162
92.794
84.689
76.875
69.376
62.214
55.411
48.981
42.942
37.304
32.077
27.267
22.878
18.911
15.364
12.234
9.514
7.196
5.267
3.715
2.526
1.683
1.167
0.96
1.041
1.387
1.977
2.788
3.797
4.978
6.308
7.762
9.316
10.948
12.634
14.351
16.08
17.799
19.493
21.143
22.736
24.258
25.696
27.04
28.282
29.415
30.436
31.339
32.124
32.791
33.345
33.787
34.124
34.361
34.506
34.567
34.555
34.48
34.35
34.178
33.973
33.749
33.518
33.293
33.085
32.906
32.766
32.676
32.647
32.683
32.787
32.96
33.204
33.518
33.902
34.351
34.861
35.43
36.059
36.749
37.495
38.29
39.12
39.976
40.85
41.731
42.607
43.463
44.285
45.069
45.819
46.533
47.202
47.804
48.305
48.684
48.927
49.024
48.967
48.755
48.391
47.906
47.357
46.79
46.247
45.747
45.296
44.925
44.678
44.606
44.767
45.188
45.88
46.868
48.149
49.679
51.381
53.118
54.729
56.084
57.052
57.484
57.222
56.103
53.996
50.764
46.236
40.326
33.051
24.637
15.617
6.595
-1.9
-9.263
-14.804
-17.979
-18.537
-16.966
-14.555
-12.653
-12.257
-14.29
-19.763
-29.59
-44.296
-61.17
-74.587
-79.873
-72.62
-53.585
-28.64
2.771
43.048
98.195
182.682
300.241
448.078
621.743
801.727
967.679
1100.875
1176.671
1179.832
1108.026
965.95
769.22
540.34
298.169
61.698
-147.189
-310.552
-416.589
-462.667
-460.602
-433.166
-400.179
-373.423
-357.435
-344.462
-325.608
-298.542
-260.634
-215.935
-172.852
-135.129
-106.533
-87.919
-75.238
-66.261
-60.58
-57.6
-57.643
-60.087
-62.373
-63.001
-61.882
-59.12
-55.083
-50.162
-44.343
-38.114
-32.788
-29.066
-27.07
-26.703
-27.412
-28.771
-30.625
-32.584
-34.078
-34.772
-34.447
-33.012
-30.581
-27.174
-22.789
-17.559
-11.66
-5.267
1.467
8.436
15.553
22.72
29.861
36.94
43.953
50.926
57.864
64.76
71.599
78.354
85.019
91.615
98.177
104.737
111.321
117.953
124.657
131.464
138.387
145.419
152.532
159.694
166.874
174.05
181.2
188.304
195.337
202.27
209.071
215.711
222.16
228.386
234.353
240.023
245.36
250.333
254.918
259.091
262.826
266.099
268.887
271.169
272.93
274.151
274.817
274.914
274.431
273.364
271.709
269.469
266.646
263.249
259.287
254.776
249.731
244.172
238.123
231.607
224.652
217.288
209.547
201.461
193.067
184.401
175.5
166.403
157.151
147.782
138.338
128.857
119.38
109.944
100.587
91.345
82.252
73.343
64.649
56.198
48.018
40.134
32.567
25.336
18.457
11.944
5.806
0.053
-5.312
-10.287
-14.871
-19.067
-22.88
-26.319
-29.393
-32.113
-34.494
-36.551
-38.299
-39.757
-40.944
-41.879
-42.584
-43.08
-43.388
-43.531
-43.532
-43.412
-43.194
-42.899
-42.547
-42.16
-41.756
-41.352
-40.967
-40.615
-40.31
-40.067
-39.896
-39.81
-39.817
-39.925
-40.141
-40.47
-40.918
-41.485
-42.174
-42.984
-43.914
-44.963
-46.128
-47.406
-48.791
-50.279
-51.862
-53.533
-55.285
-57.108
-58.992
-60.927
-62.902
-64.907
-66.931
-68.965
-70.996
-73.015
-75.012
-76.978
-78.905
-80.783
-82.605
-84.361
-86.047
-87.657
-89.186
-90.628
-91.979
-93.238
-94.408
-95.489
-96.486
-97.401
-98.24
-99.008
-99.714
-100.362
-100.958
-101.503
-102.003
-102.465
-102.902
-103.324
-103.743
-104.17
-104.614
-105.09
-105.61
-106.181
-106.801
-107.469
-108.19
-108.975
-109.854
-110.847
-111.968
-113.229
-114.638
-116.194
-117.894
-119.714
-121.606
-123.528
-125.444
-127.326
-129.176
-130.976
-132.69
-134.284
-135.693
-136.872
-137.809
-138.465
-138.82
-138.924
-138.841
-138.698
-138.685
-138.909
-139.48
-140.555
-142.232
-144.656
-147.983
-152.263
-157.65
-164.43
-172.7
-182.427
-193.39
-204.898
-216.247
-226.911
-236.04
-242.668
-246.26
-246.685
-244.519
-241.287
-238.727
-238.303
-241.606
-250.561
-264.848
-281.7
-298.429
-310.849
-318.467
-325.621
-330.454
-326.938
-303.307
-241.982
-137.795
3.015
167.74
337.848
502.717
657.932
795.269
901.831
960.224
951.41
866.396
710.291
494.05
237.342
-35.801
-302.719
-535.991
-712.483
-820.686
-858.608
-835.91
-771.887
-685.875
-596.356
-521.613
-468.371
-436.119
-419.145
-403.74
-384.152
-361.276
-338.051
-322.766
-317.956
-320.43
-326.968
-332.235
-332.937
-329.166
-321.17
-309.701
-296.172
-281.685
-267.432
-255.093
-245.714
-239.553
-236.642
-236.518
-238.506
-242.043
-246.384
-250.697
-254.475
-257.421
-259.402
-260.493
-260.699
-259.97
-258.309
-255.658
-252.012
-247.43
-241.985
-235.831
-229.138
-222.05
-214.747
-207.379
-200.033
-192.778
-185.633
-178.558
-171.55
-164.614
-157.755
-151.032
-144.474
-138.072
-131.809
-125.627
-119.465
-113.287
-107.046
-100.688
-94.188
-87.534
-80.734
-73.832
-66.858
-59.836
-52.789
-45.726
-38.661
-31.619
-24.623
-17.702
-10.887
-4.205
2.309
8.615
14.677
20.461
25.939
31.091
35.893
40.322
44.354
47.968
51.143
53.859
56.099
57.843
59.074
59.78
59.951
59.582
58.671
57.216
55.221
52.693
49.641
46.078
42.022
37.488
32.498
27.076
21.247
15.038
8.481
1.606
-5.552
-12.959
-20.578
-28.371
-36.301
-44.328
-52.416
-60.525
-68.619
-76.661
-84.614
-92.445
-100.119
-107.602
-114.862
-121.871
-128.601
-135.027
-141.125
-146.877
-152.264
-157.273
-161.892
-166.113
-169.929
-173.336
-176.334
-178.924
-181.11
-182.898
-184.298
-185.319
-185.975
-186.282
-186.253
-185.909
-185.267
-184.347
-183.169
-181.757
-180.13
-178.313
-176.329
-174.2
-171.951
-169.604
-167.184
-164.712
-162.211
-159.703
-157.207
-154.743
-152.329
-149.982
-147.718
-145.55
-143.492
-141.555
-139.749
-138.082
-136.562
-135.193
-133.979
-132.922
-132.021
-131.276
-130.684
-130.24
-129.939
-129.775
-129.742
-129.829
-130.027
-130.325
-130.713
-131.177
-131.704
-132.278
-132.886
-133.512
-134.14
-134.756
-135.344
-135.888
-136.373
-136.785
-137.109
-137.334
-137.445
-137.429
-137.275
-136.974
-136.518
-135.9
-135.112
-134.152
-133.017
-131.711
-130.239
-128.606
-126.816
-124.878
-122.802
-120.6
-118.282
-115.856
-113.329
-110.713
-108.022
-105.275
-102.489
-99.683
-96.873
-94.079
-91.321
-88.621
-85.993
-83.441
-80.972
-78.599
-76.341
-74.236
-72.311
-70.579
-69.057
-67.756
-66.674
-65.809
-65.13
-64.578
-64.105
-63.668
-63.236
-62.806
-62.355
-61.845
-61.24
-60.478
-59.518
-58.351
-56.943
-55.27
-53.383
-51.354
-49.315
-47.482
-45.981
-44.928
-44.489
-44.758
-45.854
-47.911
-50.943
-55.029
-60.384
-67.077
-75.055
-84.153
-93.796
-103.327
-112.239
-119.739
-124.834
-126.872
-125.592
-121.256
-114.917
-108.05
-102.063
-98.47
-99.46
-105.271
-112.931
-119.48
-121.377
-117.854
-114.805
-115.229
-114.603
-103.004
-62.48
22.824
154.284
325.653
523.608
727.51
920.258
1081.461
1186.611
1218.171
1165.543
1032.204
834.562
594.015
335.947
83.109
-140.04
-310.85
-420.407
-469.94
-475.991
-462.869
-443.292
-421.602
-394.264
-353.355
-299.793
-239.926
-180.44
-128.674
-88.313
-59.936
-43.287
-36.672
-37.681
-43.719
-52.641
-62.566
-71.209
-76.704
-78.054
-74.909
-67.861
-58.154
-46.717
-34.56
-23.108
-13.357
-5.816
-0.675
2.409
4.045
4.741
5.07
5.719
7.1
9.411
12.743
16.998
22.062
27.856
34.261
41.141
48.419
56.048
63.978
72.176
80.569
89.045
97.524
105.953
114.301
122.558
130.722
138.789
146.769
154.695
162.587
170.453
178.292
186.097
193.867
201.613
209.349
217.084
224.826
232.577
240.334
248.092
255.838
263.554
271.217
278.801
286.282
293.639
300.853
307.902
314.764
321.417
327.836
333.998
339.879
345.45
350.684
355.555
360.035
364.102
367.731
370.9
373.589
375.779
377.453
378.597
379.199
379.247
378.734
377.653
376.003
373.784
370.998
367.65
363.75
359.309
354.341
348.864
342.9
336.47
329.6
322.319
314.655
306.641
298.31
289.696
280.836
271.768
262.529
253.16
243.699
234.186
224.661
215.162
205.727
196.391
187.192
178.161
169.331
160.732
152.393
144.338
136.594
129.18
122.116
115.419
109.102
103.177
97.652
92.532
87.82
83.516
79.618
76.12
73.016
70.295
67.947
65.958
64.314
62.996
61.988
61.27
60.821
60.621
60.647
60.877
61.29
61.862
62.572
63.397
64.316
65.307
66.35
67.424
68.51
69.588
70.642
71.654
72.608
73.491
74.288
74.988
75.582
76.059
76.412
76.636
76.726
76.68
76.498
76.179
75.726
75.14
74.428
73.594
72.645
71.589
70.433
69.187
67.86
66.464
65.01
63.509
61.973
60.413
58.844
57.278
55.729
54.208
52.729
51.303
49.943
48.661
47.469
46.377
45.393
44.527
43.786
43.178
42.707
42.37
42.166
42.094
42.149
42.326
42.618
43.016
43.512
44.103
44.784
45.548
46.385
47.281
48.223
49.197
50.192
51.192
52.178
53.134
54.05
54.924
55.753
56.527
57.225
57.816
58.275
58.588
58.739
58.714
58.51
58.129
57.595
56.957
56.256
55.525
54.781
54.028
53.286
52.589
51.977
51.497
51.177
51.029
51.088
51.368
51.824
52.38
52.903
53.231
53.276
52.951
52.134
50.722
48.591
45.622
41.772
36.948
30.922
23.596
15.042
5.528
-4.284
-13.689
-22.178
-29.059
-33.417
-34.705
-32.952
-28.75
-23.596
-19.247
-16.902
-17.917
-24.304
-35.91
-49.813
-63.132
-71.453
-73.979
-75.671
-76.172
-70.505
-47.674
9.347
107
240.742
399.081
564.259
724.789
873.63
998.591
1086.339
1121.233
1087.614
985.25
823.35
613.024
375.112
128.432
-107.417
-303.724
-442.466
-516.19
-528.049
-497.886
-443.446
-377.738
-311.679
-247.788
-189.807
-140.759
-98.002
-61.58
-30.8
-5.9
8.472
10.83
2.302
-14.104
-32.876
-49.666
-61.873
-68.357
-69.202
-64.89
-56.456
-45.305
-32.992
-21.383
-11.821
-4.847
-0.69
0.883
0.409
-1.586
-4.347
-7.015
-9.087
-10.328
-10.651
-10.163
-8.935
-6.981
-4.42
-1.377
2.085
5.92
10.131
14.734
19.686
24.912
30.322
35.846
41.453
47.133
52.878
58.689
64.562
70.505
76.544
82.693
88.951
95.318
101.783
108.344
115.012
121.796
128.7
135.728
142.872
150.12
157.456
164.861
172.307
179.767
187.207
194.598
201.913
209.124
216.205
223.127
229.86
236.374
242.642
248.632
254.315
259.663
264.646
269.239
273.419
277.164
280.454
283.27
285.596
287.419
288.726
289.509
289.76
289.473
288.647
287.282
285.38
282.949
279.996
276.532
272.571
268.132
263.232
257.895
252.142
246.001
239.498
232.663
225.527
218.12
210.476
202.628
194.609
186.453
178.196
169.869
161.506
153.14
144.8
136.518
128.323
120.242
112.3
104.523
96.935
89.557
82.409
75.51
68.876
62.522
56.46
50.701
45.252
40.12
35.309
30.819
26.651
22.803
19.27
16.047
13.126
10.498
8.153
6.079
4.265
2.697
1.362
0.244
-0.67
-1.395
-1.944
-2.332
-2.573
-2.681
-2.669
-2.55
-2.337
-2.043
-1.68
-1.26
-0.796
-0.297
0.225
0.762
1.303
1.842
2.371
2.885
3.379
3.848
4.289
4.7
5.079
5.427
5.742
6.027
6.283
6.513
6.719
6.906
7.076
7.234
7.38
7.52
7.655
7.786
7.917
8.047
8.177
8.309
8.443
8.58
8.718
8.857
8.994
9.129
9.258
9.378
9.481
9.558
9.599
9.599
9.548
9.435
9.244
8.962
8.579
8.087
7.48
6.747
5.873
4.845
3.653
2.29
0.754
-0.966
-2.88
-4.997
-7.317
-9.828
-12.515
-15.369
-18.394
-21.608
-25.02
-28.627
-32.422
-36.397
-40.547
-44.861
-49.315
-53.855
-58.425
-62.971
-67.448
-71.848
-76.165
-80.391
-84.505
-88.442
-92.114
-95.464
-98.456
-101.094
-103.442
-105.517
-107.277
-108.868
-110.584
-112.731
-115.679
-119.524
-123.995
-128.992
-134.741
-141.287
-148.374
-155.522
-161.748
-166.436
-169.865
-172.15
-172.892
-171.738
-168.614
-164.046
-159.871
-157.87
-158.529
-162.422
-170.385
-183.212
-201.874
-224.55
-245.726
-260.424
-264.161
-257.304
-246.216
-231.184
-209.801
-174.405
-107.618
-2.989
139.59
316.439
506.519
688.502
840.022
932.042
950.174
893.755
772.635
610.183
426.337
230.373
26.897
-178.904
-374.997
-542.229
-660.06
-719.286
-724.552
-687.641
-629.195
-567.02
-510.357
-466.955
-433.68
-402.219
-369.322
-331.242
-291.338
-258.612
-236.407
-226.043
-226.23
-232.06
-241.01
-251.807
-262.117
-270.283
-275.368
-276.733
-274.647
-269.89
-262.934
-254.297
-245.154
-236.832
-230.066
-225.145
-221.867
-219.651
-218.146
-217.117
-216.119
-214.653
-212.416
-209.243
-205.173
-200.413
-195.081
-189.233
-182.95
-176.303
-169.374
-162.251
-155.002
-147.677
-140.323
-132.969
-125.639
-118.356
-111.124
-103.944
-96.799
-89.656
-82.495
-75.31
-68.102
-60.881
-53.649
-46.395
-39.112
-31.793
-24.437
-17.049
-9.631
-2.188
5.271
12.727
20.157
27.532
34.826
42.019
49.089
56.015
62.774
69.342
75.695
81.812
87.668
93.236
98.492
103.408
107.959
112.124
115.881
119.21
122.094
124.514
126.457
127.912
128.866
129.312
129.242
128.653
127.543
125.913
123.767
121.112
117.957
114.313
110.197
105.626
100.62
95.201
89.393
83.222
76.716
69.905
62.82
55.491
47.952
40.237
32.379
24.415
16.379
8.305
0.227
-7.821
-15.807
-23.698
-31.466
-39.081
-46.515
-53.744
-60.742
-67.488
-73.962
-80.146
-86.025
-91.585
-96.817
-101.712
-106.266
-110.476
-114.342
-117.867
-121.054
-123.911
-126.445
-128.669
-130.593
-132.232
-133.601
-134.717
-135.6
-136.266
-136.738
-137.035
-137.178
-137.187
-137.084
-136.89
-136.625
-136.31
-135.963
-135.604
-135.251
-134.923
-134.636
-134.407
-134.247
-134.172
-134.191
-134.315
-134.55
-134.902
-135.375
-135.97
-136.689
-137.532
-138.494
-139.573
-140.762
-142.053
-143.439
-144.909
-146.449
-148.047
-149.689
-151.359
-153.043
-154.724
-156.388
-158.019
-159.601
-161.121
-162.564
-163.915
-165.16
-166.284
-167.278
-168.128
-168.827
-169.364
-169.733
-169.93
-169.957
-169.816
-169.511
-169.047
-168.429
-167.667
-166.776
-165.767
-164.651
-163.438
-162.137
-160.765
-159.342
-157.89
-156.427
-154.966
-153.522
-152.116
-150.771
-149.507
-148.337
-147.263
-146.284
-145.412
-144.673
-144.101
-143.726
-143.562
-143.616
-143.9
-144.428
-145.204
-146.217
-147.421
-148.764
-150.207
-151.714
-153.283
-154.917
-156.599
-158.306
-159.973
-161.509
-162.864
-164.018
-164.962
-165.757
-166.413
-166.86
-167.273
-167.989
-169.327
-171.691
-175.183
-179.483
-184.573
-190.808
-198.144
-206.23
-214.396
-221.347
-226.499
-230.332
-232.865
-233.551
-232.207
-228.946
-224.916
-222.791
-224.346
-229.711
-239.285
-253.866
-274.017
-299.965
-328.375
-352.271
-366.111
-366.837
-356.09
-338.301
-312.408
-272.527
-208.958
-111.477
20.407
179.119
352.093
522.819
677.146
801.15
880.703
903.277
859.323
749.169
579.748
365.016
128.074
-108.74
-320.221
-482.666
-589.401
-645.085
-663.564
-664.039
-653.123
-626.405
-581.907
-521.123
-453.36
-395.397
-353.312
-322.96
-299.198
-274.19
-247.257
-224.741
-209.014
-201.276
-201.002
-204.28
-208.935
-213.477
-215.84
-215.523
-212.763
-207.754
-200.89
-192.489
-182.751
-172.446
-162.849
-154.678
-148.095
-142.924
-138.678
-135.028
-131.84
-128.782
-125.352
-121.235
-116.269
-110.464
-104.031
-97.101
-89.718
-81.957
-73.895
-65.615
-57.21
-48.749
-40.275
-31.823
-23.414
-15.066
-6.797
1.39
9.498
17.545
25.569
33.595
41.635
49.693
57.763
65.85
73.967
82.124
90.328
98.582
106.88
115.221
123.602
132.015
140.444
148.868
157.261
165.598
173.859
182.025
190.073
197.98
205.722
213.275
220.615
227.717
234.555
241.102
247.329
253.211
258.724
263.846
268.554
272.829
276.651
280.005
282.876
285.251
287.119
288.471
289.301
289.604
289.378
288.623
287.344
285.545
283.234
280.424
277.128
273.362
269.145
264.497
259.442
254.004
248.211
242.089
235.669
228.98
222.055
214.926
207.626
200.19
192.65
185.041
177.395
169.747
162.128
154.57
147.104
139.759
132.564
125.547
118.733
112.146
105.81
99.744
93.967
88.496
83.344
78.524
74.044
69.911
66.131
62.705
59.633
56.913
54.541
52.508
50.808
49.429
48.36
47.584
47.088
46.853
46.861
47.094
47.528
48.142
48.912
49.816
50.828
51.923
53.075
54.258
55.445
56.612
57.731
58.78
59.732
60.565
61.256
61.786
62.135
62.284
62.216
61.918
61.377
60.581
59.522
58.194
56.591
54.711
52.554
50.124
47.423
44.458
41.237
37.768
34.066
30.144
26.017
21.701
17.215
12.579
7.816
2.948
-2.003
-7.015
-12.064
-17.128
-22.183
-27.21
-32.192
-37.113
-41.958
-46.708
-51.348
-55.865
-60.25
-64.493
-68.585
-72.519
-76.285
-79.881
-83.31
-86.575
-89.679
-92.622
-95.399
-98.013
-100.471
-102.78
-104.943
-106.962
-108.838
-110.58
-112.207
-113.738
-115.184
-116.555
-117.853
-119.073
-120.212
-121.261
-122.196
-122.997
-123.644
-124.117
-124.404
-124.496
-124.378
-124.06
-123.552
-122.854
-121.965
-120.85
-119.458
-117.831
-116.083
-114.314
-112.606
-111.057
-109.808
-109.23
-109.907
-112.201
-116.154
-121.634
-128.479
-136.565
-145.679
-155.024
-163.014
-168.193
-169.766
-167.638
-162.138
-153.438
-141.77
-128.277
-115.579
-106.763
-104.24
-108.987
-120.769
-139.636
-165.253
-195.819
-227.697
-254.091
-268.175
-266.421
-245.19
-203.684
-141.802
-55.123
54.417
183.808
330.105
483.316
640.246
797.103
943.079
1066.759
1147.092
1161.282
1097.527
954.693
745.394
494.687
229.01
-26.59
-247.569
-417.926
-529.386
-582.651
-590.597
-569.271
-532.992
-490.003
-441.801
-387.537
-326.213
-260.944
-196.864
-138.767
-91.884
-58.424
-37.533
-27.559
-25.873
-29.812
-37.745
-47.901
-57.573
-64.306
-66.798
-64.694
-58.548
-49.353
-37.815
-24.689
-11.38
0.554
10.192
17.222
21.862
24.705
26.23
26.778
26.886
27.185
28.048
29.649
31.981
34.846
38.103
41.702
45.558
49.583
53.727
57.923
62.125
66.315
70.437
74.449
78.337
82.084
85.694
89.195
92.608
95.979
99.363
102.797
106.307
109.913
113.626
117.471
121.476
125.666
130.064
134.687
139.546
144.653
150.012
155.616
161.452
167.499
173.73
180.121
186.649
193.287
200.005
206.774
213.556
220.317
227.019
233.621
240.079
246.348
252.381
258.136
263.57
268.64
273.306
277.528
281.269
284.496
287.176
289.279
290.779
291.653
291.881
291.446
290.339
288.55
286.077
282.92
279.087
274.587
269.435
263.65
257.256
250.278
242.749
234.702
226.175
217.21
207.85
198.14
188.129
177.867
167.404
156.792
146.084
135.329
124.58
113.888
103.3
92.866
82.631
72.638
62.93
53.547
44.523
35.894
27.687
19.93
12.644
5.849
-0.44
-6.211
-11.459
-16.177
-20.367
-24.032
-27.179
-29.817
-31.962
-33.629
-34.838
-35.61
-35.969
-35.942
-35.555
-34.837
-33.818
-32.529
-30.999
-29.262
-27.35
-25.295
-23.128
-20.882
-18.587
-16.273
-13.969
-11.702
-9.497
-7.377
-5.365
-3.479
-1.739
-0.16
1.245
2.464
3.488
4.308
4.921
5.323
5.517
5.502
5.282
4.863
4.251
3.456
2.487
1.352
0.064
-1.368
-2.929
-4.608
-6.388
-8.255
-10.196
-12.195
-14.234
-16.301
-18.38
-20.461
-22.536
-24.598
-26.636
-28.644
-30.62
-32.557
-34.451
-36.296
-38.08
-39.796
-41.443
-43.019
-44.525
-45.962
-47.327
-48.625
-49.859
-51.033
-52.147
-53.195
-54.166
-55.059
-55.878
-56.638
-57.363
-58.074
-58.781
-59.496
-60.23
-60.987
-61.76
-62.53
-63.252
-63.889
-64.417
-64.813
-65.064
-65.144
-65.013
-64.63
-63.95
-62.927
-61.53
-59.76
-57.626
-55.179
-52.492
-49.632
-46.725
-43.921
-41.377
-39.277
-37.773
-36.967
-37.009
-38.133
-40.51
-44.184
-48.962
-54.343
-59.807
-64.951
-69.305
-72.238
-73.175
-71.918
-69.065
-65.88
-63.661
-63.583
-66.661
-74.03
-87.033
-104.728
-123.032
-137.892
-145.084
-144.481
-141.057
-134.333
-119.29
-85.634
-18.569
86.059
222.066
376.933
533.441
680.876
813.214
922.094
997.591
1023.576
983.335
870.844
688.129
451.465
189.98
-67.371
-288.469
-450.114
-547.323
-583.867
-577.109
-546.931
-504.878
-460.66
-416.893
-374.137
-333.752
-292.95
-250.691
-206.603
-162.868
-126.289
-101.037
-88.802
-88.451
-95.516
-107.33
-122.255
-138.148
-153.421
-166.094
-174.655
-179.087
-179.862
-177.374
-172.22
-165.215
-157.443
-150.261
-144.486
-140.176
-137.084
-134.869
-133.238
-131.967
-130.697
-128.911
-126.292
-122.78
-118.446
-113.474
-107.991
-102.033
-95.659
-88.979
-82.08
-75.044
-67.931
-60.744
-53.483
-46.164
-38.794
-31.385
-23.947
-16.466
-8.921
-1.299
6.401
14.17
21.995
29.865
37.782
45.748
53.763
61.822
69.915
78.032
86.167
94.309
102.443
110.544
118.586
126.544
134.397
142.123
149.703
157.113
164.329
171.328
178.086
184.582
190.788
196.68
202.232
207.421
212.224
216.622
220.598
224.134
227.216
229.833
231.973
233.629
234.794
235.462
235.632
235.303
234.478
233.16
231.358
229.08
226.339
223.15
219.531
215.5
211.08
206.294
201.168
195.729
190.008
184.033
177.836
171.45
164.908
158.244
151.491
144.684
137.855
131.037
124.262
117.561
110.961
104.492
98.178
92.044
86.113
80.404
74.937
69.727
64.79
60.135
55.774
51.711
47.951
44.495
41.343
38.489
35.929
33.655
31.656
29.921
28.436
27.187
26.156
25.327
24.681
24.198
23.858
23.64
23.525
23.491
23.519
23.589
23.682
23.78
23.866
23.924
23.94
23.9
23.791
23.602
23.324
22.951
22.476
21.896
21.208
20.415
19.518
18.523
17.435
16.262
15.011
13.693
12.32
10.905
9.46
7.998
6.532
5.077
3.649
2.261
0.928
-0.338
-1.526
-2.623
-3.618
-4.504
-5.276
-5.932
-6.469
-6.886
-7.183
-7.363
-7.432
-7.394
-7.252
-7.011
-6.678
-6.264
-5.784
-5.258
-4.702
-4.133
-3.571
-3.038
-2.559
-2.151
-1.823
-1.586
-1.455
-1.454
-1.626
-2
-2.596
-3.434
-4.531
-5.896
-7.533
-9.427
-11.532
-13.811
-16.236
-18.789
-21.481
-24.301
-27.218
-30.194
-33.174
-36.12
-39.029
-41.875
-44.622
-47.295
-49.95
-52.702
-55.73
-59.132
-62.979
-67.369
-72.375
-78.107
-84.697
-92.187
-100.673
-110.367
-121.34
-133.557
-146.854
-160.646
-174.254
-187.124
-198.444
-207.27
-213.063
-215.677
-215.518
-213.903
-212.488
-212.695
-216.137
-224.83
-238.772
-255.718
-273.31
-287.47
-297.179
-305.836
-311.67
-309.553
-289.289
-235.519
-142.975
-15.173
138.753
305.073
474.75
638.058
779.571
878.449
913.253
874.719
768.884
614.971
433.585
235.77
28.82
-179.2
-371.443
-522.877
-618.482
-657.849
-655.231
-632.95
-600.554
-556.758
-498.487
-424.169
-345.795
-281.071
-239.353
-221.965
-219.676
-219.554
-215.49
-207.7
-201.072
-200.267
-205.933
-215.261
-223.422
-227.765
-228.121
-225.12
-220.063
-213.59
-205.717
-197.193
-189.37
-183.053
-178.528
-175.749
-174.184
-173.397
-173.206
-173.213
-172.838
-171.744
-169.756
-166.814
-163.081
-158.688
-153.667
-148.105
-142.098
-135.693
-128.96
-121.958
-114.715
-107.301
-99.779
-92.179
-84.537
-76.867
-69.17
-61.453
-53.708
-45.908
-38.041
-30.105
-22.104
-14.054
-5.961
2.178
10.367
18.605
26.89
35.212
43.563
51.932
60.302
68.649
76.945
85.157
93.256
101.215
109.009
116.612
123.997
131.133
137.994
144.55
150.775
156.638
162.108
167.157
171.757
175.885
179.517
182.632
185.213
187.242
188.706
189.594
189.897
189.61
188.727
187.249
185.176
182.514
179.27
175.454
171.079
166.162
160.72
154.776
148.353
141.477
134.177
126.484
118.431
110.052
101.382
92.459
83.321
74.006
64.555
55.005
45.397
35.769
26.159
16.602
7.135
-2.21
-11.401
-20.408
-29.203
-37.761
-46.058
-54.074
-61.79
-69.188
-76.257
-82.984
-89.36
-95.38
-101.037
-106.331
-111.263
-115.833
-120.049
-123.914
-127.439
-130.633
-133.507
-136.076
-138.351
-140.349
-142.085
-143.573
-144.83
-145.871
-146.713
-147.368
-147.85
-148.173
-148.349
-148.391
-148.308
-148.109
-147.804
-147.398
-146.898
-146.311
-145.637
-144.88
-144.041
-143.12
-142.117
-141.031
-139.86
-138.6
-137.25
-135.805
-134.264
-132.622
-130.877
-129.022
-127.056
-124.976
-122.781
-120.469
-118.04
-115.495
-112.837
-110.077
-107.221
-104.279
-101.261
-98.179
-95.048
-91.881
-88.694
-85.493
-82.291
-79.099
-75.935
-72.818
-69.765
-66.796
-63.926
-61.177
-58.571
-56.127
-53.853
-51.753
-49.828
-48.088
-46.55
-45.242
-44.181
-43.376
-42.837
-42.572
-42.577
-42.841
-43.322
-43.96
-44.7
-45.499
-46.329
-47.175
-48.006
-48.783
-49.467
-50.009
-50.378
-50.555
-50.491
-50.164
-49.612
-48.9
-48.163
-47.565
-47.202
-47.166
-47.574
-48.518
-50.096
-52.393
-55.414
-59.203
-63.931
-69.684
-76.423
-83.953
-91.723
-99.094
-105.554
-110.425
-112.791
-112.075
-108.216
-101.567
-93.319
-85.119
-78.304
-74.423
-75.786
-82.434
-91.198
-99.043
-101.569
-97.658
-94.015
-93.832
-94.88
-89.281
-56.696
20.248
147.192
321.682
523.438
725.096
902.19
1029.273
1093.807
1090.626
1017.847
883.442
692.229
456.607
200.822
-49.034
-257.433
-398.422
-469.104
-480.548
-459.966
-434.14
-412.511
-394.115
-370.738
-334.282
-286.313
-233.005
-180.909
-135.576
-99.234
-72.836
-56.416
-48.703
-48.239
-53.397
-62.686
-75.036
-88.66
-100.816
-109.705
-114.638
-115.543
-113.117
-107.998
-100.51
-91.611
-82.898
-75.361
-69.452
-65.238
-62.197
-59.904
-58.183
-56.606
-54.599
-51.83
-48.108
-43.402
-37.931
-31.84
-25.191
-18.091
-10.627
-2.869
5.102
13.226
21.466
29.778
38.127
46.488
54.836
63.158
71.451
79.715
87.97
96.229
104.495
112.762
121.011
129.23
137.417
145.57
153.69
161.771
169.802
177.772
185.672
193.488
201.2
208.781
216.199
223.426
230.438
237.213
243.727
249.957
255.877
261.463
266.691
271.538
275.979
279.987
283.536
286.604
289.17
291.216
292.726
293.684
294.078
293.899
293.14
291.797
289.868
287.352
284.253
280.577
276.335
271.538
266.203
260.346
253.99
247.158
239.876
232.172
224.079
215.626
206.849
197.784
188.467
178.938
169.234
159.396
149.464
139.48
129.483
119.515
109.615
99.82
90.169
80.694
71.431
62.41
53.659
45.204
37.069
29.274
21.838
14.774
8.094
1.807
-4.084
-9.575
-14.668
-19.367
-23.678
-27.61
-31.174
-34.382
-37.251
-39.796
-42.036
-43.99
-45.681
-47.131
-48.362
-49.4
-50.269
-50.994
-51.6
-52.111
-52.551
-52.941
-53.304
-53.658
-54.022
-54.413
-54.845
-55.332
-55.884
-56.508
-57.211
-57.997
-58.866
-59.817
-60.844
-61.944
-63.107
-64.327
-65.592
-66.893
-68.216
-69.549
-70.88
-72.193
-73.475
-74.709
-75.88
-76.972
-77.969
-78.857
-79.619
-80.244
-80.719
-81.035
-81.185
-81.163
-80.967
-80.599
-80.065
-79.368
-78.515
-77.507
-76.349
-75.047
-73.61
-72.049
-70.369
-68.58
-66.693
-64.728
-62.709
-60.654
-58.569
-56.454
-54.297
-52.1
-49.877
-47.646
-45.435
-43.274
-41.182
-39.195
-37.362
-35.709
-34.255
-32.982
-31.829
-30.761
-29.769
-28.865
-28.107
-27.503
-27.013
-26.587
-26.131
-25.586
-24.968
-24.228
-23.245
-22.04
-20.684
-19.468
-19.006
-19.64
-21.383
-24.208
-27.922
-32.281
-37.237
-42.25
-46.139
-48.213
-48.217
-46.229
-43.03
-39.208
-34.727
-30.205
-27.088
-26.655
-30.169
-38.23
-50.465
-66.94
-88.428
-115.447
-145.978
-175.347
-198.986
-212.915
-218.479
-221.795
-222.979
-217.243
-192.578
-130.73
-25.036
120.098
291.688
468.378
636.385
788.083
914.519
1007.883
1052.895
1030.965
934.348
762.555
529.5
265.823
2.612
-225.81
-391.938
-491.153
-531.276
-533.538
-523.657
-512.134
-499.556
-479.388
-443.024
-391.243
-330.201
-267.474
-210.371
-162.136
-124.173
-97.067
-79.679
-70.706
-68.574
-70.984
-76.247
-82.512
-87.1
-88.441
-86.095
-80.052
-71.162
-60.625
-49.221
-38.042
-28.668
-21.842
-17.682
-16.121
-16.54
-18.281
-20.989
-24.087
-26.862
-28.964
-30.183
-30.394
-29.682
-28.024
-25.327
-21.655
-17.115
-11.839
-6.036
0.154
6.631
13.24
19.876
26.468
32.952
39.334
45.64
51.862
57.989
63.992
69.826
75.485
80.976
86.326
91.596
96.836
102.089
107.413
112.842
118.392
124.074
129.869
135.742
141.668
147.624
153.591
159.56
165.513
171.429
177.284
183.05
188.696
194.192
199.502
204.59
209.424
213.973
218.212
222.12
225.675
228.855
231.64
234.007
235.936
237.41
238.411
238.924
238.936
238.437
237.423
235.892
233.846
231.288
228.225
224.668
220.628
216.121
211.166
205.78
199.988
193.812
187.278
180.414
173.249
165.813
158.138
150.257
142.204
134.015
125.725
117.37
108.987
100.61
92.275
84.015
75.864
67.852
60.009
52.362
44.939
37.76
30.848
24.219
17.888
11.868
6.168
0.794
-4.251
-8.966
-13.35
-17.409
-21.146
-24.57
-27.69
-30.516
-33.06
-35.335
-37.357
-39.141
-40.705
-42.067
-43.246
-44.262
-45.135
-45.886
-46.534
-47.1
-47.602
-48.058
-48.486
-48.901
-49.318
-49.752
-50.212
-50.71
-51.253
-51.846
-52.495
-53.201
-53.963
-54.779
-55.645
-56.557
-57.509
-58.492
-59.499
-60.518
-61.54
-62.556
-63.555
-64.524
-65.452
-66.325
-67.132
-67.863
-68.505
-69.048
-69.48
-69.794
-69.984
-70.048
-69.983
-69.787
-69.459
-69.002
-68.419
-67.715
-66.892
-65.954
-64.904
-63.754
-62.516
-61.209
-59.847
-58.445
-57.021
-55.594
-54.188
-52.818
-51.488
-50.207
-48.984
-47.843
-46.821
-45.946
-45.236
-44.707
-44.378
-44.256
-44.348
-44.637
-45.077
-45.634
-46.279
-46.996
-47.799
-48.68
-49.609
-50.549
-51.447
-52.264
-52.999
-53.625
-54.102
-54.455
-54.739
-55.067
-55.628
-56.522
-57.82
-59.62
-61.993
-65.049
-68.93
-73.691
-79.426
-86.349
-94.553
-104.021
-114.623
-125.798
-136.833
-147.116
-155.837
-162.065
-165.232
-165.19
-162.352
-158.026
-154.047
-152.166
-154.047
-161.697
-175.415
-192.887
-211.455
-227.202
-237.904
-246.123
-251.933
-250.615
-233.591
-186.217
-97.612
31.438
194.366
378.045
566.111
747.426
905.497
1020.247
1076.171
1057.362
962.674
803.476
590.99
346.39
89.779
-158.851
-370.047
-524.723
-616.097
-647.385
-636.632
-601.125
-549.823
-489.986
-427.974
-369.408
-320.794
-283.874
-252.48
-221.123
-188.457
-156.961
-133.291
-121.546
-121.142
-129.327
-141.971
-155.919
-168.904
-178.91
-185.048
-187.049
-185.12
-179.978
-172.253
-162.6
-152.291
-142.76
-134.809
-128.736
-124.346
-121.088
-118.593
-116.614
-114.694
-112.315
-109.174
-105.122
-100.206
-94.644
-88.552
-81.987
-75.026
-67.745
-60.223
-52.544
-44.767
-36.939
-29.103
-21.288
-13.519
-5.82
1.804
9.351
16.836
24.286
31.72
39.142
46.547
53.926
61.276
68.606
75.927
83.246
90.569
97.894
105.222
112.555
119.886
127.204
134.489
141.718
148.868
155.924
162.869
169.683
176.347
182.837
189.131
195.208
201.045
206.614
211.889
216.842
221.446
225.679
229.517
232.937
235.919
238.445
240.496
242.059
243.121
243.67
243.697
243.195
242.16
240.59
238.486
235.85
232.69
229.014
224.834
220.165
215.026
209.437
203.42
197.002
190.21
183.075
175.629
167.904
159.937
151.763
143.42
134.946
126.38
117.76
109.125
100.512
91.957
83.496
75.163
66.989
59.005
51.237
43.712
36.453
29.482
22.816
16.471
10.462
4.799
-0.511
-5.462
-10.054
-14.287
-18.164
-21.694
-24.884
-27.747
-30.296
-32.546
-34.515
-36.222
-37.686
-38.93
-39.976
-40.847
-41.567
-42.161
-42.653
-43.067
-43.426
-43.753
-44.069
-44.393
-44.744
-45.138
-45.591
-46.115
-46.724
-47.428
-48.235
-49.152
-50.184
-51.334
-52.601
-53.985
-55.481
-57.084
-58.786
-60.578
-62.451
-64.393
-66.393
-68.437
-70.514
-72.609
-74.71
-76.8
-78.866
-80.893
-82.867
-84.775
-86.604
-88.341
-89.977
-91.504
-92.919
-94.22
-95.409
-96.484
-97.45
-98.31
-99.07
-99.737
-100.313
-100.799
-101.201
-101.528
-101.792
-102.007
-102.187
-102.342
-102.489
-102.642
-102.816
-103.021
-103.26
-103.531
-103.84
-104.199
-104.631
-105.17
-105.843
-106.666
-107.656
-108.823
-110.17
-111.693
-113.366
-115.139
-116.97
-118.828
-120.687
-122.534
-124.344
-126.081
-127.693
-129.124
-130.313
-131.218
-131.825
-132.131
-132.167
-131.98
-131.622
-131.211
-130.891
-130.82
-131.158
-132.033
-133.513
-135.701
-138.837
-143.078
-148.439
-154.731
-161.416
-167.933
-173.922
-178.947
-182.337
-183.588
-182.546
-179.761
-176.705
-174.879
-175.505
-179.74
-188.762
-203.735
-223.573
-244.268
-261.294
-269.255
-267.293
-260.301
-248.159
-229.312
-196.842
-134.259
-35.234
101.491
272.284
457.021
637.182
790.938
892.246
928.82
893.303
790.755
637.005
443.307
226.839
2.488
-213.298
-393.748
-524.749
-601.524
-630.105
-633.079
-624.193
-607.83
-583.865
-544.764
-489.769
-425.118
-358.125
-296.988
-246.686
-209.439
-185.823
-174.54
-173.842
-181.427
-194.39
-210.454
-227.105
-241.156
-250.792
-255.368
-254.813
-250.076
-242.385
-232.593
-221.967
-212.254
-204.42
-198.825
-195.53
-193.965
-193.513
-193.819
-194.346
-194.435
-193.762
-192.167
-189.601
-186.25
-182.256
-177.664
-172.578
-167.089
-161.234
-155.071
-148.641
-141.965
-135.107
-128.123
-121.04
-113.888
-106.674
-99.391
-92.04
-84.606
-77.063
-69.396
-61.603
-53.689
-45.665
-37.534
-29.294
-20.936
-12.459
-3.861
4.853
13.675
22.596
31.599
40.66
49.75
58.837
67.893
76.89
85.804
94.608
103.274
111.773
120.077
128.158
135.988
143.535
150.771
157.665
164.19
170.323
176.041
181.323
186.149
190.502
194.367
197.732
200.587
202.923
204.732
206.012
206.761
206.981
206.678
205.857
204.53
202.708
200.407
197.647
194.447
190.83
186.821
182.447
177.735
172.715
167.418
161.876
156.119
150.181
144.096
137.895
131.612
125.278
118.925
112.581
106.277
100.04
93.897
87.87
81.984
76.261
70.719
65.376
60.249
55.351
50.693
46.284
42.132
38.24
34.611
31.244
28.137
25.285
22.683
20.321
18.191
16.28
14.577
13.069
11.741
10.579
9.567
8.689
7.93
7.274
6.707
6.212
5.776
5.384
5.023
4.682
4.35
4.015
3.668
3.299
2.901
2.467
1.992
1.472
0.902
0.282
-0.389
-1.107
-1.869
-2.671
-3.508
-4.372
-5.256
-6.15
-7.045
-7.933
-8.805
-9.65
-10.46
-11.221
-11.925
-12.562
-13.125
-13.603
-13.991
-14.281
-14.473
-14.566
-14.565
-14.471
-14.286
-14.013
-13.655
-13.217
-12.703
-12.115
-11.458
-10.74
-9.97
-9.164
-8.339
-7.506
-6.68
-5.872
-5.092
-4.352
-3.654
-3
-2.4
-1.867
-1.416
-1.072
-0.85
-0.76
-0.813
-1.013
-1.349
-1.809
-2.366
-2.985
-3.633
-4.283
-4.924
-5.543
-6.112
-6.622
-7.035
-7.319
-7.56
-7.813
-8.074
-8.371
-8.679
-8.99
-9.508
-10.405
-11.473
-12.589
-14.024
-16.114
-19.463
-24.805
-30.92
-36.701
-43.634
-51.911
-64.043
-82.203
-100.409
-114.77
-120.873
-113.11
-96.483
-75.611
-54.403
-40.391
-34.604
-35.903
-43.499
-55.239
-72.314
-99.496
-140.932
-194.795
-250.909
-291.446
-298.215
-261.229
-182.932
-77.492
40.122
159.793
280.299
409.383
549.447
694.52
827.666
923.032
961.852
934.63
845.605
708.98
535.539
337.355
125.433
-87.311
-276.654
-421.109
-509.864
-543.373
-539.153
-518.799
-493.637
-467.334
-436.204
-393.808
-340.932
-282.838
-225.219
-174.195
-133.277
-103.36
-84.28
-74.812
-73.207
-77.652
-86.516
-98.038
-109.776
-119.33
-125.275
-127.056
-124.905
-119.56
-111.65
-101.861
-91.461
-81.877
-73.934
-67.962
-63.819
-60.979
-59.078
-57.844
-56.794
-55.393
-53.326
-50.429
-46.734
-42.44
-37.658
-32.445
-26.884
-21.052
-15.023
-8.875
-2.658
3.589
9.834
16.052
22.225
28.339
34.394
40.4
46.374
52.351
58.353
64.389
70.462
76.566
82.703
88.883
95.118
101.416
107.784
114.219
120.724
127.298
133.935
140.62
147.333
154.049
160.746
167.406
174.008
180.534
186.962
193.269
199.432
205.429
211.235
216.824
222.169
227.242
232.016
236.466
240.569
244.302
247.644
250.575
253.076
255.131
256.726
257.847
258.483
258.625
258.265
257.399
256.025
254.145
251.76
248.878
245.507
241.66
237.35
232.595
227.413
221.825
215.854
209.526
202.866
195.903
188.667
181.187
173.496
165.628
157.615
149.491
141.29
133.045
124.79
116.556
108.376
100.279
92.296
84.454
76.782
69.306
62.048
55.032
48.278
41.804
35.625
29.755
24.206
18.986
14.103
9.56
5.361
1.505
-2.008
-5.182
-8.022
-10.536
-12.732
-14.622
-16.215
-17.526
-18.569
-19.359
-19.911
-20.241
-20.367
-20.305
-20.073
-19.689
-19.171
-18.536
-17.801
-16.984
-16.102
-15.17
-14.202
-13.213
-12.214
-11.217
-10.233
-9.273
-8.344
-7.453
-6.608
-5.814
-5.075
-4.395
-3.774
-3.213
-2.711
-2.266
-1.877
-1.539
-1.248
-0.999
-0.786
-0.605
-0.449
-0.313
-0.189
-0.071
0.048
0.172
0.308
0.461
0.634
0.83
1.051
1.295
1.559
1.842
2.138
2.439
2.738
3.028
3.308
3.576
3.829
4.061
4.266
4.438
4.576
4.675
4.725
4.711
4.62
4.448
4.204
3.897
3.533
3.103
2.595
1.988
1.274
0.447
-0.502
-1.587
-2.821
-4.195
-5.677
-7.207
-8.725
-10.212
-11.67
-13.11
-14.538
-15.909
-17.139
-18.168
-18.957
-19.48
-19.766
-19.781
-19.418
-18.777
-18.113
-17.714
-17.94
-18.883
-20.306
-22.173
-24.687
-27.787
-31.267
-34.789
-37.671
-39.734
-41.371
-42.608
-43.207
-43.11
-42.219
-40.695
-39.334
-38.68
-39.028
-41.02
-45.132
-51.906
-62.184
-76.051
-93.053
-110.737
-124.08
-130.41
-128.665
-119.474
-106.879
-87.143
-49.921
12.22
105.904
226.502
357.605
488.114
611.681
725.277
828.281
911.216
955.207
943.53
869.835
738.416
563.162
362.444
150.745
-56.946
-240.014
-380.666
-468.458
-503.027
-500.021
-480.483
-456.736
-433.412
-407.446
-372.199
-327.771
-278.443
-229.097
-185.153
-149.328
-122.652
-105.258
-95.833
-92.891
-95.09
-101.187
-110.283
-120.838
-130.353
-137.237
-140.945
-141.425
-139.267
-134.976
-128.739
-121.359
-114.29
-108.41
-104.085
-101.333
-99.613
-98.539
-97.987
-97.578
-96.785
-95.291
-92.906
-89.613
-85.643
-81.139
-76.158
-70.803
-65.151
-59.284
-53.295
-47.248
-41.186
-35.145
-29.149
-23.217
-17.367
-11.601
-5.913
-0.285
5.319
10.923
16.539
22.174
27.824
33.49
39.185
44.92
50.705
56.547
62.444
68.398
74.41
80.477
86.585
92.719
98.854
104.971
111.054
117.087
123.052
128.93
134.7
140.341
145.833
151.153
156.277
161.178
165.829
170.206
174.285
178.043
181.459
184.511
187.18
189.447
191.299
192.719
193.695
194.216
194.273
193.862
192.977
191.62
189.791
187.494
184.738
181.532
177.89
173.827
169.362
164.514
159.306
153.764
147.915
141.786
135.407
128.81
122.027
115.092
108.037
100.898
93.707
86.499
79.306
72.162
65.097
58.141
51.324
44.671
38.21
31.962
25.949
20.19
14.702
9.499
4.593
-0.007
-4.294
-8.265
-11.917
-15.252
-18.274
-20.988
-23.404
-25.532
-27.386
-28.979
-30.328
-31.45
-32.364
-33.089
-33.646
-34.055
-34.337
-34.515
-34.611
-34.645
-34.64
-34.615
-34.59
-34.583
-34.614
-34.698
-34.849
-35.083
-35.412
-35.846
-36.397
-37.073
-37.88
-38.824
-39.909
-41.137
-42.506
-44.016
-45.662
-47.437
-49.336
-51.349
-53.469
-55.684
-57.984
-60.355
-62.785
-65.262
-67.771
-70.295
-72.822
-75.333
-77.816
-80.255
-82.636
-84.946
-87.171
-89.3
-91.322
-93.228
-95.008
-96.651
-98.151
-99.5
-100.692
-101.723
-102.588
-103.287
-103.819
-104.188
-104.405
-104.476
-104.412
-104.222
-103.921
-103.52
-103.034
-102.472
-101.842
-101.152
-100.415
-99.647
-98.863
-98.08
-97.309
-96.565
-95.863
-95.217
-94.64
-94.134
-93.698
-93.331
-93.047
-92.868
-92.826
-92.948
-93.248
-93.734
-94.415
-95.292
-96.354
-97.568
-98.873
-100.212
-101.539
-102.826
-104.056
-105.196
-106.199
-107.002
-107.535
-107.751
-107.62
-107.127
-106.276
-105.105
-103.679
-102.117
-100.594
-99.286
-98.381
-98.061
-98.467
-99.722
-101.981
-105.443
-110.269
-116.509
-123.983
-132.249
-140.808
-149.208
-156.958
-163.437
-168.015
-170.282
-170.538
-169.903
-169.661
-170.849
-174.405
-181.19
-192.028
-207.633
-225.679
-240.952
-249.023
-245.295
-230.047
-209.065
-182.172
-147.062
-97.36
-18.463
93.659
236.261
402.957
574.972
736.748
872.898
964.266
997.089
959.171
847.281
669.575
442.32
190.333
-61.61
-289.219
-470.612
-592.739
-650.543
-650.278
-609.289
-549.265
-490.736
-446.77
-419.279
-400.408
-378.837
-347.127
-305.235
-260.934
-224.673
-202.132
-193.968
-197.058
-205.743
-216.775
-228.291
-237.64
-243.567
-245.362
-242.366
-235.204
-225.016
-212.547
-199.033
-186.243
-175.18
-166.379
-160.068
-155.833
-153.154
-151.619
-150.612
-149.406
-147.587
-144.95
-141.427
-137.15
-132.208
-126.658
-120.605
-114.163
-107.404
-100.366
-93.081
-85.566
-77.884
-70.14
-62.413
-54.756
-47.199
-39.753
-32.417
-25.194
-18.073
-11.018
-4.009
2.963
9.902
16.805
23.673
30.522
37.368
44.225
51.104
58.014
64.956
71.929
78.925
85.929
92.923
99.882
106.784
113.612
120.347
126.969
133.458
139.792
145.949
151.908
157.646
163.137
168.358
173.283
177.89
182.157
186.064
189.591
192.722
195.44
197.731
199.585
200.991
201.941
202.429
202.452
202.009
201.102
199.734
197.912
195.645
192.945
189.828
186.31
182.411
178.155
173.564
168.665
163.486
158.056
152.404
146.562
140.56
134.431
128.207
121.921
115.605
109.29
103.007
96.786
90.656
84.644
78.774
73.07
67.554
62.246
57.164
52.323
47.739
43.423
39.384
35.631
32.167
28.996
26.117
23.528
21.224
19.198
17.441
15.942
14.689
13.669
12.866
12.265
11.848
11.599
11.498
11.527
11.666
11.896
12.197
12.552
12.941
13.347
13.753
14.143
14.5
14.811
15.061
15.236
15.326
15.318
15.202
14.971
14.617
14.135
13.52
12.77
11.885
10.864
9.708
8.42
7.002
5.459
3.796
2.019
0.134
-1.85
-3.925
-6.081
-8.307
-10.592
-12.926
-15.298
-17.696
-20.108
-22.523
-24.929
-27.316
-29.671
-31.981
-34.235
-36.419
-38.523
-40.535
-42.446
-44.244
-45.922
-47.472
-48.888
-50.163
-51.294
-52.275
-53.101
-53.769
-54.276
-54.623
-54.806
-54.826
-54.685
-54.388
-53.943
-53.36
-52.647
-51.815
-50.874
-49.837
-48.716
-47.521
-46.258
-44.933
-43.558
-42.146
-40.712
-39.271
-37.837
-36.421
-35.04
-33.707
-32.435
-31.229
-30.086
-29.006
-27.996
-27.073
-26.268
-25.604
-25.095
-24.753
-24.583
-24.584
-24.748
-25.043
-25.413
-25.805
-26.173
-26.487
-26.733
-26.881
-26.901
-26.744
-26.35
-25.679
-24.7
-23.39
-21.768
-19.882
-17.809
-15.683
-13.654
-11.875
-10.535
-9.79
-9.775
-10.626
-12.401
-15.227
-19.35
-24.883
-31.807
-39.93
-48.736
-57.689
-66.397
-74.208
-80.239
-83.847
-84.71
-83.102
-80.046
-76.781
-74.428
-74.236
-77.869
-85.264
-94.115
-102.02
-105.631
-105.647
-107.539
-111.282
-112.306
-97.435
-46.663
46.046
175.402
325.92
474.501
614.452
746.983
869.611
977.538
1048.259
1053.233
980.709
830.808
618.727
373.809
119.653
-121.139
-322.753
-470.568
-557.77
-586.272
-571.664
-529.687
-470.755
-405.003
-341.339
-286.64
-246.589
-220.191
-198.448
-174.131
-145.324
-114.762
-89.79
-74.824
-69.199
-70.789
-76.134
-82.662
-88.996
-93.609
-95.817
-95.684
-93.587
-90.003
-85.251
-79.576
-73.66
-68.626
-65.147
-63.382
-63.112
-63.811
-65.099
-66.767
-68.447
-69.65
-70.039
-69.397
-67.626
-64.804
-61.004
-56.312
-50.908
-44.957
-38.587
-31.914
-25.027
-18.018
-10.968
-3.913
3.151
10.232
17.331
24.421
31.459
38.42
45.305
52.138
58.961
65.801
72.674
79.604
86.62
93.755
101.032
108.442
115.958
123.553
131.208
138.909
146.644
154.394
162.134
169.837
177.477
185.028
192.464
199.753
206.862
213.753
220.395
226.758
232.818
238.549
243.924
248.917
253.502
257.657
261.361
264.592
267.329
269.552
271.247
272.4
273.002
273.047
272.531
271.451
269.812
267.617
264.876
261.598
257.798
253.492
248.698
243.438
237.735
231.615
225.105
218.236
211.039
203.547
195.794
187.816
179.65
171.331
162.898
154.387
145.835
137.277
128.75
120.287
111.921
103.686
95.61
87.721
80.046
72.608
65.427
58.522
51.908
45.599
39.602
33.927
28.579
23.558
18.867
14.501
10.458
6.73
3.309
0.186
-2.653
-5.22
-7.531
-9.602
-11.45
-13.096
-14.557
-15.855
-17.009
-18.041
-18.972
-19.824
-20.616
-21.369
-22.104
-22.84
-23.594
-24.385
-25.228
-26.138
-27.127
-28.208
-29.389
-30.681
-32.088
-33.618
-35.275
-37.061
-38.98
-41.033
-43.22
-45.539
-47.989
-50.566
-53.267
-56.084
-59.012
-62.042
-65.166
-68.373
-71.654
-74.998
-78.392
-81.825
-85.283
-88.754
-92.223
-95.676
-99.097
-102.474
-105.791
-109.036
-112.195
-115.257
-118.21
-121.042
-123.745
-126.31
-128.727
-130.987
-133.083
-135.006
-136.751
-138.311
-139.682
-140.858
-141.838
-142.622
-143.215
-143.621
-143.846
-143.894
-143.775
-143.498
-143.072
-142.506
-141.802
-140.966
-140.01
-138.944
-137.786
-136.548
-135.245
-133.889
-132.497
-131.083
-129.662
-128.239
-126.812
-125.387
-123.972
-122.588
-121.272
-120.049
-118.937
-117.952
-117.103
-116.391
-115.813
-115.341
-114.922
-114.512
-114.067
-113.567
-113.003
-112.354
-111.593
-110.677
-109.548
-108.171
-106.52
-104.575
-102.358
-99.918
-97.332
-94.736
-92.284
-90.124
-88.442
-87.402
-87.144
-87.809
-89.455
-92.176
-96.196
-101.627
-108.427
-116.354
-124.827
-133.266
-141.29
-148.356
-153.668
-156.638
-156.986
-155.2
-152.621
-150.402
-149.54
-151.14
-156.317
-166.303
-179.824
-192.275
-199.265
-196.668
-185.852
-174.431
-163.284
-148.397
-118.256
-52.667
54.929
200.628
372.598
546.854
707.736
841.502
932.376
971.6
946.348
852.716
698.38
492.084
254.826
8.221
-227.159
-423.914
-566.187
-648.978
-675.213
-660.306
-618.3
-557.285
-486.426
-414.766
-350.078
-300.638
-267.811
-244.375
-224.924
-206.3
-188.591
-177.759
-176.957
-184.616
-198.152
-212.637
-223.583
-229.801
-231.215
-228.174
-221.737
-212.905
-202.346
-191.251
-181.201
-172.97
-166.879
-163.001
-160.853
-159.927
-159.837
-160.006
-159.796
-158.877
-157.084
-154.381
-150.905
-146.75
-141.981
-136.708
-131.037
-125.042
-118.769
-112.257
-105.534
-98.66
-91.729
-84.804
-77.928
-71.129
-64.416
-57.791
-51.258
-44.808
-38.416
-32.066
-25.754
-19.477
-13.24
-7.039
-0.861
5.308
11.479
17.659
23.854
30.065
36.289
42.52
48.747
54.953
61.122
67.239
73.292
79.267
85.151
90.929
96.584
102.101
107.461
112.648
117.64
122.418
126.961
131.252
135.273
139.007
142.438
145.552
148.335
150.774
152.86
154.583
155.934
156.908
157.499
157.705
157.525
156.959
156.011
154.684
152.984
150.921
148.505
145.749
142.666
139.273
135.588
131.632
127.425
122.99
118.35
113.532
108.561
103.464
98.268
93.002
87.692
82.367
77.054
71.778
66.567
61.444
56.434
51.557
46.836
42.289
37.936
33.791
29.871
26.189
22.755
19.581
16.674
14.039
11.682
9.605
7.807
6.288
5.044
4.07
3.36
2.905
2.695
2.719
2.963
3.415
4.06
4.881
5.861
6.983
8.23
9.582
11.022
12.531
14.09
15.682
17.289
18.894
20.48
22.031
23.532
24.967
26.322
27.585
28.744
29.785
30.698
31.474
32.103
32.579
32.893
33.042
33.02
32.824
32.455
31.912
31.195
30.309
29.255
28.04
26.67
25.152
23.495
21.709
19.804
17.792
15.687
13.501
11.249
8.943
6.598
4.229
1.85
-0.524
-2.879
-5.201
-7.476
-9.691
-11.83
-13.88
-15.829
-17.666
-19.377
-20.952
-22.382
-23.661
-24.785
-25.753
-26.565
-27.22
-27.72
-28.069
-28.274
-28.337
-28.26
-28.045
-27.696
-27.222
-26.638
-25.956
-25.187
-24.342
-23.434
-22.476
-21.485
-20.465
-19.412
-18.331
-17.228
-16.125
-15.059
-14.06
-13.148
-12.342
-11.655
-11.094
-10.668
-10.355
-10.112
-9.903
-9.695
-9.468
-9.232
-8.967
-8.642
-8.216
-7.615
-6.791
-5.719
-4.359
-2.701
-0.781
1.348
3.581
5.77
7.802
9.537
10.807
11.488
11.424
10.503
8.602
5.436
0.808
-5.281
-12.617
-20.648
-28.702
-36.298
-42.864
-47.54
-49.742
-49.32
-46.918
-44.193
-42.825
-44.283
-49.954
-61.077
-78.774
-101.744
-125.433
-144.923
-154.946
-154.63
-148.468
-135.445
-111.43
-67.18
12.976
132.542
287.249
467.615
654.036
833.002
989.5
1103.84
1162.04
1148.568
1060.007
906.906
701.749
466.61
221.893
-14.746
-217.794
-369.232
-461.851
-497.367
-494.282
-474.193
-448.109
-420.819
-389.613
-348.244
-298.012
-244.485
-193.245
-150.751
-120.546
-102.284
-94.469
-95.08
-101.598
-111.705
-123.865
-136.003
-145.406
-150.727
-151.543
-147.855
-140.623
-130.951
-119.509
-107.492
-96.539
-87.527
-80.866
-76.622
-74.282
-73.334
-73.379
-73.832
-74.027
-73.577
-72.294
-70.132
-67.228
-63.68
-59.551
-54.945
-49.966
-44.686
-39.143
-33.376
-27.414
-21.326
-15.217
-9.163
-3.214
2.6
8.268
13.79
19.166
24.414
29.571
34.664
39.704
44.702
49.66
54.588
59.511
64.45
69.425
74.453
79.547
84.713
89.958
95.278
100.665
106.104
111.58
117.077
122.583
128.087
133.574
139.03
144.437
149.778
155.035
160.189
165.217
170.094
174.796
179.299
183.579
187.613
191.375
194.844
197.995
200.807
203.259
205.332
207.007
208.268
209.101
209.495
209.439
208.929
207.959
206.527
204.637
202.291
199.498
196.265
192.606
188.532
184.062
179.212
174.003
168.457
162.596
156.446
150.034
143.388
136.537
129.513
122.347
115.07
107.715
100.315
92.903
85.51
78.167
70.905
63.754
56.74
49.891
43.231
36.782
30.564
24.595
18.89
13.462
8.323
3.479
-1.061
-5.295
-9.221
-12.837
-16.146
-19.153
-21.861
-24.279
-26.416
-28.281
-29.888
-31.25
-32.382
-33.3
-34.02
-34.561
-34.942
-35.182
-35.299
-35.314
-35.245
-35.112
-34.935
-34.731
-34.517
-34.309
-34.123
-33.972
-33.868
-33.822
-33.842
-33.936
-34.111
-34.372
-34.723
-35.169
-35.709
-36.346
-37.078
-37.904
-38.822
-39.827
-40.911
-42.07
-43.295
-44.578
-45.91
-47.279
-48.676
-50.089
-51.508
-52.922
-54.319
-55.69
-57.02
-58.302
-59.525
-60.683
-61.767
-62.77
-63.688
-64.519
-65.267
-65.933
-66.522
-67.035
-67.48
-67.862
-68.189
-68.465
-68.693
-68.874
-69.013
-69.121
-69.208
-69.285
-69.36
-69.443
-69.547
-69.684
-69.866
-70.094
-70.365
-70.678
-71.039
-71.466
-71.984
-72.611
-73.355
-74.227
-75.233
-76.371
-77.633
-78.986
-80.38
-81.768
-83.114
-84.395
-85.601
-86.699
-87.651
-88.412
-88.929
-89.171
-89.113
-88.716
-87.979
-86.939
-85.662
-84.259
-82.849
-81.532
-80.433
-79.681
-79.405
-79.734
-80.742
-82.552
-85.393
-89.388
-94.516
-100.605
-107.191
-113.747
-119.873
-124.954
-128.129
-128.809
-126.869
-122.766
-117.55
-112.555
-108.951
-108.038
-111.815
-120.478
-131.559
-142.242
-148.926
-152.156
-157.609
-165.661
-171.611
-161.84
-115.875
-26.556
102.782
257.418
413.828
561.422
695.003
811.021
907.523
971.386
985.619
937.73
821.953
642.239
415.213
166.485
-76.531
-282.687
-430.38
-516.852
-549.683
-549.061
-536.215
-518.325
-495.798
-464.399
-418.764
-361.683
-300.034
-240.104
-187.887
-146.782
-117.608
-100.075
-92.788
-93.699
-100.686
-111.954
-125.68
-139.349
-150.483
-157.66
-160.418
-159.115
-154.587
-147.486
-138.435
-128.67
-119.657
-112.227
-106.697
-102.903
-100.281
-98.465
-97.228
-96.112
-94.574
-92.29
-89.09
-85.001
-80.242
-74.936
-69.139
-62.94
-56.423
-49.675
-42.786
-35.818
-28.813
-21.808
-14.83
-7.899
-1.037
5.756
12.48
19.152
25.801
32.446
39.093
45.742
52.383
59.016
65.649
72.293
78.955
85.639
92.343
99.067
105.811
112.567
119.321
126.054
132.739
139.355
145.882
152.303
158.598
164.747
170.727
176.515
182.092
187.434
192.515
197.31
201.792
205.936
209.72
213.124
216.126
218.709
220.856
222.554
223.789
224.553
224.836
224.633
223.938
222.751
221.072
218.906
216.259
213.139
209.56
205.537
201.089
196.236
191.001
185.41
179.491
173.273
166.787
160.065
153.14
146.047
138.821
131.499
124.116
116.71
109.315
101.967
94.699
87.545
80.533
73.694
67.054
60.639
54.471
48.571
42.957
37.646
32.651
27.982
23.648
19.654
16
12.686
9.707
7.057
4.727
2.704
0.974
-0.479
-1.672
-2.627
-3.362
-3.902
-4.269
-4.489
-4.586
-4.584
-4.509
-4.386
-4.239
-4.092
-3.968
-3.886
-3.868
-3.932
-4.097
-4.376
-4.784
-5.331
-6.029
-6.885
-7.905
-9.094
-10.451
-11.977
-13.669
-15.522
-17.529
-19.68
-21.964
-24.369
-26.879
-29.481
-32.157
-34.888
-37.656
-40.44
-43.222
-45.983
-48.702
-51.361
-53.939
-56.418
-58.784
-61.021
-63.114
-65.049
-66.817
-68.407
-69.819
-71.049
-72.097
-72.961
-73.646
-74.155
-74.497
-74.678
-74.702
-74.572
-74.297
-73.892
-73.372
-72.755
-72.058
-71.297
-70.495
-69.674
-68.856
-68.056
-67.279
-66.535
-65.839
-65.215
-64.701
-64.324
-64.099
-64.045
-64.175
-64.491
-64.992
-65.649
-66.411
-67.238
-68.097
-68.974
-69.87
-70.768
-71.638
-72.44
-73.129
-73.675
-74.068
-74.27
-74.264
-74.096
-73.836
-73.617
-73.603
-73.874
-74.508
-75.615
-77.28
-79.606
-82.698
-86.575
-91.315
-97.137
-104.129
-112.219
-121.145
-130.247
-138.831
-146.408
-152.295
-155.587
-155.768
-152.889
-147.555
-141.287
-135.859
-132.478
-132.545
-138.111
-148.969
-162.063
-174.386
-181.418
-182.564
-183.365
-184.011
-179.779
-159.171
-103.931
-6.464
128.98
289.41
454.811
612.827
756.87
878.442
968.578
1010.431
985.421
886.842
716.418
489.242
233.123
-24.452
-253.752
-430.135
-544.596
-597.777
-602.123
-576.179
-531.313
-476.6
-419.243
-362.174
-311.935
-271.818
-237.881
-208.392
-180.869
-155.27
-137.188
-128.981
-130.705
-140.31
-153.032
-165.472
-175.049
-180.317
-181.325
-178.205
-171.54
-162.43
-151.748
-140.658
-130.698
-122.677
-116.933
-113.54
-112.054
-111.958
-112.797
-113.982
-114.875
-115.125
-114.566
-113.155
-111.012
-108.22
-104.841
-100.978
-96.727
-92.152
-87.288
-82.169
-76.818
-71.297
-65.698
-60.087
-54.503
-48.969
-43.489
-38.059
-32.675
-27.322
-21.963
-16.577
-11.154
-5.686
-0.172
5.395
11.032
16.759
22.587
28.529
34.59
40.772
47.072
53.482
59.987
66.567
73.202
79.869
86.553
93.233
99.891
106.504
113.05
119.504
125.843
132.041
138.069
143.899
149.502
154.851
159.92
164.683
169.115
173.192
176.892
180.195
183.081
185.534
187.537
189.077
190.144
190.729
190.825
190.429
189.54
188.159
186.292
183.946
181.132
177.863
174.155
170.024
165.493
160.583
155.319
149.728
143.836
137.674
131.273
124.663
117.879
110.954
103.919
96.81
89.659
82.498
75.359
68.274
61.271
54.378
47.623
41.031
34.627
28.432
22.467
16.748
11.293
6.115
1.224
-3.371
-7.664
-11.653
-15.335
-18.713
-21.789
-24.569
-27.061
-29.274
-31.22
-32.91
-34.359
-35.582
-36.595
-37.416
-38.063
-38.552
-38.902
-39.132
-39.261
-39.305
-39.281
-39.205
-39.095
-38.965
-38.831
-38.706
-38.603
-38.534
-38.51
-38.538
-38.628
-38.783
-39.008
-39.305
-39.673
-40.114
-40.624
-41.198
-41.832
-42.519
-43.253
-44.026
-44.829
-45.652
-46.482
-47.309
-48.124
-48.916
-49.676
-50.394
-51.059
-51.668
-52.218
-52.709
-53.136
-53.497
-53.789
-54.013
-54.172
-54.268
-54.301
-54.269
-54.174
-54.023
-53.829
-53.601
-53.346
-53.068
-52.771
-52.469
-52.174
-51.895
-51.636
-51.4
-51.192
-51.025
-50.927
-50.917
-51.005
-51.198
-51.496
-51.897
-52.401
-52.993
-53.641
-54.315
-54.988
-55.637
-56.248
-56.799
-57.275
-57.671
-57.984
-58.209
-58.32
-58.265
-58.036
-57.683
-57.315
-57.023
-56.823
-56.787
-57.142
-58.295
-60.697
-64.573
-69.78
-76.147
-83.791
-92.683
-102.42
-112.005
-119.947
-125.213
-127.701
-127.642
-124.845
-119.232
-111.306
-102.749
-96.387
-94.619
-98.463
-107.982
-123.475
-145.161
-172.212
-201.803
-229.202
-249.34
-257.79
-251.021
-225.269
-176.272
-102.644
-8.065
101.813
220.152
343.198
474.816
615.714
757.769
885.205
970.95
989.044
930.517
799.001
610.588
392.184
165.229
-51.387
-236.383
-376.888
-466.787
-507.413
-513.895
-503.699
-486.617
-466.631
-440.79
-404.355
-359.421
-311.683
-267.091
-230.743
-204.027
-186.406
-176.928
-173.662
-174.314
-176.348
-177.464
-176.571
-173.256
-167.063
-157.931
-146.265
-132.851
-119.146
-106.658
-96.077
-87.648
-81.558
-77.716
-75.917
-75.89
-76.933
-78.165
-79.088
-79.434
-79.055
-77.999
-76.254
-73.745
-70.543
-66.791
-62.587
-58.019
-53.124
-47.879
-42.331
-36.568
-30.69
-24.822
-19.04
-13.368
-7.822
-2.404
2.894
8.076
13.168
18.22
23.268
28.336
33.44
38.582
43.78
49.057
54.441
59.956
65.615
71.422
77.377
83.478
89.717
96.082
102.551
109.101
115.708
122.352
129.014
135.672
142.301
148.874
155.365
161.744
167.981
174.044
179.9
185.513
190.851
195.883
200.578
204.905
208.838
212.35
215.419
218.023
220.144
221.766
222.876
223.463
223.519
223.041
222.027
220.477
218.396
215.792
212.676
209.062
204.966
200.408
195.41
189.997
184.197
178.038
171.552
164.774
157.738
150.482
143.044
135.465
127.783
120.039
112.271
104.518
96.818
89.206
81.715
74.378
67.225
60.282
53.575
47.126
40.956
35.083
29.521
24.282
19.375
14.808
10.585
6.706
3.172
-0.023
-2.884
-5.42
-7.64
-9.558
-11.188
-12.547
-13.653
-14.525
-15.185
-15.653
-15.953
-16.107
-16.137
-16.064
-15.91
-15.693
-15.434
-15.151
-14.859
-14.573
-14.306
-14.069
-13.872
-13.724
-13.631
-13.596
-13.621
-13.708
-13.856
-14.064
-14.328
-14.642
-14.999
-15.393
-15.817
-16.262
-16.719
-17.177
-17.624
-18.051
-18.446
-18.801
-19.102
-19.341
-19.508
-19.6
-19.613
-19.545
-19.395
-19.163
-18.851
-18.466
-18.012
-17.493
-16.911
-16.271
-15.583
-14.861
-14.121
-13.376
-12.639
-11.926
-11.254
-10.644
-10.107
-9.648
-9.27
-8.983
-8.805
-8.771
-8.906
-9.224
-9.737
-10.46
-11.395
-12.546
-13.898
-15.406
-17.032
-18.751
-20.543
-22.417
-24.359
-26.33
-28.284
-30.162
-31.919
-33.546
-35.012
-36.273
-37.347
-38.28
-39.175
-40.194
-41.419
-42.898
-44.712
-46.945
-49.717
-53.178
-57.387
-62.428
-68.505
-75.722
-84.061
-93.322
-102.888
-112.055
-120.28
-126.911
-131.189
-132.649
-131.192
-127.473
-123.06
-119.532
-118.309
-120.77
-128.21
-141.843
-160.351
-179.309
-194.112
-199.593
-195.344
-186.71
-173.11
-151.459
-113.258
-41.304
69.732
217.809
395.839
582.914
762.132
916.342
1023.889
1070.823
1045.749
946.771
784.2
573.508
336.633
96.334
-124.391
-303.177
-427.007
-495.689
-518.648
-511.926
-489.646
-453.965
-406.898
-352.987
-295.829
-247.562
-213.987
-190.611
-175.404
-162.661
-149.709
-141.426
-139.235
-143.004
-151.985
-162.135
-170.293
-175.173
-176.193
-173.748
-168.691
-161.882
-153.939
-145.621
-138.042
-131.936
-127.645
-125.279
-124.508
-124.841
-125.892
-127.168
-128.085
-128.294
-127.611
-125.952
-123.395
-120.01
-115.844
-110.996
-105.583
-99.678
-93.336
-86.603
-79.511
-72.132
-64.574
-56.919
-49.224
-41.523
-33.832
-26.161
-18.522
-10.916
-3.324
4.271
11.874
19.48
27.077
34.66
42.234
49.808
57.39
64.982
72.578
80.173
87.756
95.311
102.82
110.256
117.591
124.797
131.853
138.737
145.428
151.902
158.137
164.108
169.795
175.173
180.22
184.91
189.22
193.129
196.617
199.669
202.266
204.396
206.046
207.206
207.868
208.027
207.679
206.822
205.456
203.584
201.215
198.356
195.019
191.218
186.971
182.298
177.221
171.765
165.957
159.826
153.401
146.715
139.8
132.692
125.423
118.03
110.547
103.012
95.458
87.922
80.436
73.034
65.748
58.607
51.64
44.873
38.331
32.036
26.01
20.271
14.835
9.715
4.922
0.465
-3.652
-7.424
-10.853
-13.942
-16.696
-19.123
-21.234
-23.041
-24.558
-25.803
-26.793
-27.547
-28.085
-28.429
-28.601
-28.623
-28.517
-28.307
-28.014
-27.659
-27.265
-26.85
-26.435
-26.036
-25.67
-25.353
-25.098
-24.92
-24.829
-24.834
-24.944
-25.165
-25.502
-25.956
-26.528
-27.216
-28.016
-28.923
-29.93
-31.029
-32.21
-33.46
-34.768
-36.122
-37.507
-38.911
-40.318
-41.713
-43.082
-44.411
-45.687
-46.899
-48.033
-49.079
-50.029
-50.88
-51.628
-52.27
-52.804
-53.229
-53.548
-53.763
-53.877
-53.888
-53.795
-53.603
-53.319
-52.954
-52.519
-52.024
-51.481
-50.902
-50.306
-49.708
-49.119
-48.541
-47.981
-47.451
-46.973
-46.58
-46.296
-46.134
-46.107
-46.223
-46.48
-46.874
-47.378
-47.938
-48.512
-49.066
-49.577
-50.04
-50.433
-50.713
-50.838
-50.76
-50.452
-49.908
-49.105
-48.036
-46.758
-45.355
-43.965
-42.763
-41.857
-41.339
-41.347
-42.003
-43.452
-45.84
-49.215
-53.638
-59.263
-66.124
-74.142
-83.02
-92.097
-100.71
-108.371
-114.493
-118.42
-119.748
-118.33
-114.713
-110.235
-106.043
-103.121
-102.521
-105.122
-111.799
-121.646
-130.863
-135.244
-130.54
-115.488
-94.67
-70.591
-42.578
-6.815
49.645
137.74
260.875
418.403
597.254
776.577
934.769
1047.203
1093.152
1061.463
951.31
772.495
544.76
293.162
43.086
-179.804
-354.552
-468.406
-519.171
-515.536
-472.809
-410.811
-345.791
-290.655
-254.397
-236.207
-231.518
-231.188
-225.872
-213.827
-197.194
-181.287
-170.129
-162.809
-156.53
-148.369
-137.25
-124.131
-110.397
-97.205
-85.243
-75.012
-67.047
-61.573
-58.441
-57.286
-57.639
-59.148
-61.52
-64.427
-67.49
-70.32
-72.662
-74.394
-75.45
-75.798
-75.406
-74.233
-72.292
-69.659
-66.412
-62.63
-58.385
-53.729
-48.736
-43.503
-38.131
-32.735
-27.393
-22.144
-17.015
-12.017
-7.15
-2.414
2.21
6.767
11.291
15.801
20.318
24.845
29.395
33.989
38.644
43.374
48.184
53.074
58.04
63.078
68.177
73.324
78.496
83.668
88.818
93.928
98.977
103.946
108.815
113.56
118.161
122.598
126.848
130.888
134.694
138.241
141.506
144.47
147.111
149.412
151.355
152.924
154.107
154.891
155.267
155.227
154.765
153.876
152.56
150.816
148.648
146.061
143.063
139.664
135.876
131.715
127.198
122.343
117.169
111.701
105.961
99.974
93.766
87.365
80.799
74.096
67.286
60.4
53.468
46.519
39.582
32.688
25.863
19.134
12.527
6.067
-0.224
-6.323
-12.212
-17.871
-23.283
-28.435
-33.313
-37.907
-42.209
-46.213
-49.916
-53.315
-56.411
-59.207
-61.707
-63.918
-65.846
-67.503
-68.897
-70.042
-70.95
-71.636
-72.115
-72.403
-72.516
-72.473
-72.29
-71.985
-71.577
-71.082
-70.519
-69.904
-69.254
-68.583
-67.907
-67.24
-66.595
-65.983
-65.417
-64.905
-64.455
-64.074
-63.767
-63.537
-63.386
-63.313
-63.316
-63.394
-63.542
-63.755
-64.029
-64.355
-64.728
-65.138
-65.579
-66.041
-66.515
-66.989
-67.454
-67.9
-68.317
-68.694
-69.023
-69.295
-69.505
-69.65
-69.729
-69.738
-69.678
-69.548
-69.352
-69.091
-68.764
-68.368
-67.902
-67.37
-66.779
-66.138
-65.454
-64.736
-63.992
-63.235
-62.476
-61.724
-60.982
-60.245
-59.515
-58.805
-58.136
-57.543
-57.055
-56.689
-56.46
-56.386
-56.473
-56.72
-57.103
-57.575
-58.092
-58.623
-59.151
-59.668
-60.153
-60.571
-60.868
-60.983
-60.865
-60.486
-59.831
-58.903
-57.74
-56.401
-54.977
-53.62
-52.496
-51.757
-51.54
-51.944
-53.035
-54.949
-57.941
-62.208
-67.791
-74.565
-82.185
-90.236
-98.376
-106.117
-112.61
-117.051
-119.137
-119.101
-117.694
-116.208
-115.92
-118.007
-124.537
-136.079
-149.967
-163.229
-172.698
-178.335
-186.819
-202.116
-219.984
-227.834
-203.567
-129.788
-4.971
161.045
348.163
535.327
711.112
863.18
978.408
1045.325
1046.682
976.847
841.674
649.286
421.936
181.788
-50.486
-246.439
-389.062
-473.384
-504.255
-502.574
-488.564
-471.124
-451.84
-424.989
-384.729
-333.335
-277.129
-222.725
-175.974
-139.648
-114.354
-99.694
-94.408
-96.661
-104.161
-115.043
-127.491
-139.118
-147.962
-152.979
-153.73
-150.652
-144.807
-136.968
-128.068
-119.545
-112.44
-107.261
-104.202
-102.923
-102.831
-103.523
-104.515
-105.162
-105.087
-104.098
-102.107
-99.243
-95.648
-91.387
-86.572
-81.324
-75.701
-69.766
-63.579
-57.173
-50.626
-44.01
-37.368
-30.741
-24.145
-17.579
-11.045
-4.528
1.994
8.539
15.115
21.723
28.352
34.999
41.665
48.357
55.084
61.847
68.645
75.476
82.333
89.204
96.072
102.913
109.7
116.411
123.024
129.519
135.879
142.082
148.108
153.935
159.544
164.91
170.011
174.82
179.311
183.462
187.248
190.65
193.645
196.217
198.347
200.02
201.224
201.947
202.182
201.921
201.16
199.897
198.135
195.877
193.13
189.903
186.208
182.059
177.474
172.473
167.078
161.311
155.199
148.769
142.051
135.075
127.873
120.478
112.927
105.254
97.497
89.694
81.882
74.099
66.382
58.769
51.295
43.993
36.898
30.039
23.447
17.147
11.166
5.524
0.24
-4.668
-9.187
-13.307
-17.021
-20.323
-23.213
-25.691
-27.762
-29.432
-30.711
-31.611
-32.147
-32.334
-32.194
-31.746
-31.015
-30.025
-28.804
-27.378
-25.779
-24.035
-22.179
-20.241
-18.253
-16.246
-14.251
-12.3
-10.421
-8.641
-6.987
-5.483
-4.152
-3.014
-2.086
-1.383
-0.918
-0.701
-0.741
-1.044
-1.612
-2.444
-3.54
-4.893
-6.497
-8.341
-10.412
-12.695
-15.171
-17.823
-20.63
-23.568
-26.613
-29.738
-32.917
-36.123
-39.328
-42.505
-45.624
-48.656
-51.576
-54.36
-56.984
-59.427
-61.668
-63.691
-65.485
-67.04
-68.348
-69.402
-70.199
-70.737
-71.018
-71.046
-70.822
-70.351
-69.639
-68.697
-67.543
-66.197
-64.676
-63.003
-61.202
-59.298
-57.322
-55.3
-53.245
-51.177
-49.117
-47.095
-45.159
-43.344
-41.669
-40.156
-38.824
-37.683
-36.736
-35.963
-35.311
-34.74
-34.214
-33.718
-33.261
-32.832
-32.403
-31.939
-31.391
-30.741
-29.998
-29.157
-28.192
-27.126
-26.034
-25.056
-24.408
-24.24
-24.629
-25.655
-27.388
-29.925
-33.375
-37.807
-43.237
-49.717
-57.376
-66.264
-76.334
-87.302
-98.522
-109.261
-118.85
-126.509
-131.339
-132.815
-130.771
-125.447
-118.211
-110.729
-104.257
-100.699
-101.096
-104.02
-107.767
-110.255
-110.794
-113.412
-120.603
-129.168
-128.837
-101.464
-33.07
78.566
224.25
385.635
546.255
697.25
833.381
946.601
1024.382
1051.254
1012.895
909.016
749.458
545.771
317.094
80.336
-147.788
-340.867
-479.654
-556.5
-574.718
-554.955
-519.871
-481.545
-444.816
-406.241
-359.937
-307.769
-254.718
-206.36
-169.159
-144.842
-131.86
-128.444
-131.705
-138.556
-147.137
-155.419
-160.733
-161.801
-158.316
-150.298
-138.774
-125.111
-110.251
-95.507
-82.611
-72.494
-65.536
-61.783
-60.602
-61.323
-63.438
-66.23
-68.96
-71.199
-72.675
-73.282
-73.118
-72.238
-70.657
-68.429
-65.537
-61.928
-57.596
-52.583
-47.006
-41.011
-34.734
-28.3
-21.806
-15.334
-8.948
-2.668
3.528
9.67
15.787
21.888
27.935
33.882
39.719
45.46
51.16
56.873
62.627
68.454
74.383
80.448
86.67
93.042
99.528
106.092
112.704
119.342
125.996
132.654
139.292
145.883
152.4
158.813
165.095
171.217
177.142
182.832
188.252
193.377
198.184
202.653
206.762
210.486
213.806
216.703
219.161
221.166
222.699
223.747
224.301
224.353
223.901
222.944
221.484
219.523
217.072
214.139
210.74
206.89
202.605
197.907
192.818
187.36
181.56
175.444
169.039
162.372
155.473
148.373
141.1
133.685
126.157
118.544
110.876
103.179
95.479
87.8
80.166
72.598
65.118
57.745
50.496
43.388
36.435
29.648
23.038
16.614
10.38
4.341
-1.5
-7.144
-12.592
-17.846
-22.911
-27.793
-32.496
-37.029
-41.4
-45.618
-49.691
-53.628
-57.441
-61.139
-64.731
-68.228
-71.639
-74.971
-78.233
-81.434
-84.579
-87.676
-90.73
-93.747
-96.732
-99.688
-102.621
-105.533
-108.427
-111.305
-114.166
-117.013
-119.843
-122.655
-125.446
-128.212
-130.95
-133.654
-136.321
-138.944
-141.518
-144.035
-146.49
-148.875
-151.184
-153.409
-155.54
-157.572
-159.495
-161.303
-162.99
-164.548
-165.97
-167.248
-168.379
-169.356
-170.174
-170.828
-171.312
-171.621
-171.753
-171.706
-171.476
-171.063
-170.465
-169.686
-168.731
-167.607
-166.322
-164.881
-163.295
-161.574
-159.729
-157.77
-155.704
-153.538
-151.28
-148.944
-146.544
-144.095
-141.611
-139.105
-136.592
-134.091
-131.618
-129.181
-126.781
-124.422
-122.112
-119.869
-117.723
-115.693
-113.791
-112.029
-110.417
-108.956
-107.638
-106.436
-105.298
-104.179
-103.049
-101.888
-100.693
-99.442
-98.1
-96.631
-94.993
-93.162
-91.131
-88.868
-86.358
-83.65
-80.825
-78.023
-75.412
-73.081
-71.112
-69.624
-68.715
-68.506
-69.125
-70.595
-72.993
-76.524
-81.269
-87.189
-94.067
-101.272
-108.101
-114.009
-118.225
-119.851
-118.38
-113.709
-106.295
-97.477
-88.912
-82.081
-78.743
-81.082
-88.95
-99.548
-110.188
-116.829
-119.25
-122.391
-125.274
-122.43
-102.323
-47.088
50.435
186.655
350.812
524.662
694.975
851.939
982.307
1072.687
1107.01
1071.438
964.518
792.714
571.149
324.485
77.023
-143.176
-311.003
-418.217
-467.519
-476.026
-467.043
-451.287
-431.509
-403.744
-360.768
-304.246
-241.496
-179.923
-127.204
-87.683
-61.715
-48.55
-46.522
-52.948
-64.819
-79.756
-95.224
-108.245
-117.201
-121.396
-120.584
-115.659
-107.936
-98.324
-88.12
-79.006
-71.843
-67.024
-64.663
-64.265
-65.269
-67.244
-69.569
-71.543
-72.785
-73.101
-72.431
-70.906
-68.61
-65.596
-61.97
-57.846
-53.295
-48.367
-43.097
-37.509
-31.662
-25.651
-19.54
-13.374
-7.177
-0.955
5.294
11.567
17.872
24.236
30.672
37.181
43.763
50.409
57.114
63.887
70.735
77.662
84.67
91.757
98.914
106.131
113.391
120.673
127.95
135.196
142.385
149.496
156.507
163.397
170.143
176.72
183.105
189.275
195.205
200.868
206.236
211.285
215.991
220.332
224.287
227.838
230.967
233.659
235.902
237.685
239.001
239.843
240.205
240.088
239.491
238.419
236.876
234.871
232.414
229.517
226.195
222.464
218.344
213.854
209.014
203.849
198.384
192.642
186.653
180.442
174.038
167.473
160.774
153.974
147.101
140.186
133.258
126.345
119.474
112.672
105.962
99.369
92.914
86.617
80.496
74.568
68.847
63.346
58.075
53.043
48.258
43.723
39.443
35.418
31.65
28.136
24.875
21.862
19.091
16.555
14.248
12.159
10.278
8.594
7.095
5.768
4.6
3.579
2.69
1.919
1.252
0.676
0.176
-0.26
-0.647
-0.998
-1.324
-1.638
-1.951
-2.273
-2.613
-2.981
-3.384
-3.831
-4.326
-4.876
-5.486
-6.162
-6.906
-7.722
-8.611
-9.575
-10.612
-11.723
-12.905
-14.155
-15.468
-16.84
-18.265
-19.739
-21.253
-22.8
-24.373
-25.961
-27.555
-29.145
-30.721
-32.269
-33.778
-35.235
-36.627
-37.945
-39.175
-40.303
-41.318
-42.208
-42.961
-43.568
-44.017
-44.298
-44.401
-44.318
-44.045
-43.576
-42.907
-42.036
-40.963
-39.692
-38.23
-36.582
-34.757
-32.764
-30.612
-28.315
-25.885
-23.333
-20.67
-17.909
-15.064
-12.157
-9.208
-6.237
-3.266
-0.316
2.589
5.422
8.163
10.806
13.336
15.739
17.993
20.06
21.915
23.542
24.927
26.053
26.917
27.52
27.888
28.078
28.133
28.094
27.986
27.807
27.578
27.336
27.118
26.982
26.952
27.028
27.23
27.598
28.114
28.712
29.258
29.542
29.424
28.831
27.677
25.881
23.331
19.892
15.474
10.055
3.557
-4.182
-13.206
-23.477
-34.703
-46.169
-57.107
-66.836
-74.509
-79.199
-80.501
-78.335
-73.018
-66.174
-59.587
-54.572
-53.36
-57.084
-63.856
-71.703
-78.267
-81.987
-86.811
-95.458
-103.751
-102.111
-73.432
-2.072
114.584
270.001
449.713
634.489
811.777
968.664
1088.597
1159.49
1165.673
1097.704
960.519
761.293
518.602
258.217
2.617
-221.25
-391.978
-500.735
-545.685
-534.954
-486.109
-416.401
-342.624
-282.234
-241.155
-217.116
-203.588
-186.826
-160.796
-128.383
-95.023
-69.602
-55.895
-51.959
-54.927
-61.085
-68.201
-75.04
-80.089
-82.661
-82.602
-80.063
-75.572
-69.5
-62.179
-54.516
-47.72
-42.523
-39.14
-37.389
-36.784
-36.928
-37.601
-38.41
-38.818
-38.5
-37.299
-35.199
-32.372
-28.941
-24.94
-20.442
-15.537
-10.284
-4.765
0.955
6.841
12.828
18.861
24.913
30.948
36.955
42.94
48.908
54.881
60.895
66.968
73.107
79.315
85.59
91.939
98.374
104.903
111.531
118.26
125.088
132.012
139.027
146.118
153.265
160.444
167.625
174.785
181.901
188.949
195.906
202.745
209.439
215.962
222.288
228.389
234.235
239.796
245.041
249.944
254.478
258.616
262.335
265.61
268.421
270.748
272.573
273.882
274.659
274.894
274.579
273.708
272.278
270.289
267.743
264.646
261.007
256.837
252.151
246.967
241.302
235.18
228.625
221.664
214.324
206.635
198.629
190.337
181.794
173.035
164.094
155.007
145.811
136.541
127.233
117.922
108.643
99.429
90.313
81.327
72.499
63.858
55.431
47.242
39.313
31.665
24.315
17.279
10.569
4.197
-1.832
-7.51
-12.835
-17.806
-22.425
-26.695
-30.622
-34.213
-37.476
-40.421
-43.06
-45.407
-47.474
-49.277
-50.832
-52.155
-53.264
-54.177
-54.912
-55.487
-55.921
-56.232
-56.438
-56.557
-56.607
-56.605
-56.567
-56.509
-56.444
-56.385
-56.346
-56.337
-56.367
-56.445
-56.577
-56.771
-57.03
-57.359
-57.762
-58.24
-58.795
-59.427
-60.136
-60.921
-61.78
-62.708
-63.703
-64.761
-65.876
-67.044
-68.26
-69.517
-70.811
-72.135
-73.482
-74.847
-76.223
-77.602
-78.98
-80.351
-81.709
-83.049
-84.367
-85.66
-86.927
-88.167
-89.378
-90.559
-91.711
-92.834
-93.931
-95.001
-96.048
-97.072
-98.078
-99.072
-100.063
-101.061
-102.072
-103.108
-104.178
-105.294
-106.464
-107.695
-108.989
-110.347
-111.774
-113.276
-114.86
-116.53
-118.29
-120.146
-122.103
-124.166
-126.335
-128.604
-130.959
-133.391
-135.897
-138.478
-141.147
-143.914
-146.782
-149.753
-152.824
-155.983
-159.208
-162.46
-165.675
-168.799
-171.784
-174.583
-177.168
-179.501
-181.536
-183.233
-184.542
-185.417
-185.82
-185.728
-185.152
-184.146
-182.796
-181.208
-179.512
-177.837
-176.334
-175.185
-174.535
-174.526
-175.253
-176.797
-179.361
-183.093
-187.978
-193.796
-200.027
-206.051
-211.423
-215.654
-217.943
-217.741
-214.941
-209.987
-204.256
-199.157
-195.719
-195.184
-199.045
-208.442
-221.927
-235.29
-243.599
-241.758
-230.767
-216.79
-200.992
-182.281
-150.894
-87.705
16.965
165.77
350.02
544.506
722.048
856.269
926.371
922.446
846.966
710.296
524.529
308.564
80.135
-142.167
-331.766
-470.588
-551.652
-578.276
-570.428
-549.497
-525.926
-503.022
-476.141
-438.459
-391.093
-339.347
-289.001
-246.112
-213.597
-191.627
-179.512
-175.714
-178.358
-185.735
-196.431
-208.877
-220.915
-230.493
-236.44
-238.371
-236.597
-231.791
-224.466
-215.237
-205.273
-195.908
-187.941
-181.655
-176.912
-173.263
-170.383
-168.036
-165.787
-163.112
-159.7
-155.412
-150.275
-144.47
-138.118
-131.267
-123.995
-116.388
-108.518
-100.466
-92.292
-84.041
-75.758
-67.483
-59.248
-51.082
-43.002
-35.012
-27.107
-19.265
-11.473
-3.728
3.965
11.596
19.16
26.663
34.113
41.518
48.879
56.199
63.476
70.715
77.91
85.055
92.132
99.123
106.012
112.786
119.435
125.946
132.307
138.503
144.521
150.348
155.969
161.369
166.529
171.432
176.061
180.401
184.439
188.161
191.554
194.606
197.306
199.645
201.614
203.205
204.411
205.226
205.647
205.671
205.296
204.525
203.358
201.8
199.857
197.537
194.849
191.803
188.413
184.69
180.649
176.307
171.679
166.784
161.638
156.261
150.673
144.893
138.942
132.839
126.605
120.258
113.819
107.306
100.737
94.13
87.501
80.868
74.247
67.651
61.097
54.596
48.16
41.802
35.529
29.352
23.278
17.312
11.46
5.726
0.114
-5.375
-10.738
-15.974
-21.084
-26.067
-30.924
-35.658
-40.27
-44.761
-49.135
-53.393
-57.54
-61.576
-65.506
-69.333
-73.059
-76.688
-80.223
-83.669
-87.029
-90.306
-93.504
-96.628
-99.68
-102.664
-105.584
-108.441
-111.239
-113.98
-116.667
-119.303
-121.89
-124.43
-126.926
-129.379
-131.793
-134.167
-136.504
-138.804
-141.067
-143.295
-145.489
-147.648
-149.772
-151.862
-153.917
-155.936
-157.917
-159.859
-161.757
-163.609
-165.411
-167.158
-168.845
-170.468
-172.02
-173.496
-174.89
-176.199
-177.416
-178.535
-179.55
-180.454
-181.244
-181.913
-182.455
-182.865
-183.138
-183.273
-183.271
-183.133
-182.859
-182.452
-181.913
-181.247
-180.458
-179.549
-178.516
-177.361
-176.085
-174.697
-173.204
-171.616
-169.939
-168.182
-166.357
-164.477
-162.556
-160.596
-158.597
-156.561
-154.498
-152.428
-150.383
-148.383
-146.444
-144.578
-142.799
-141.111
-139.515
-137.987
-136.483
-134.964
-133.399
-131.776
-130.09
-128.318
-126.427
-124.375
-122.115
-119.63
-116.911
-113.936
-110.711
-107.279
-103.715
-100.151
-96.738
-93.601
-90.867
-88.673
-87.165
-86.5
-86.79
-88.148
-90.721
-94.575
-99.691
-105.905
-112.757
-119.706
-126.286
-131.932
-135.988
-137.953
-137.585
-135.203
-131.866
-128.753
-126.711
-126.632
-129.611
-136.594
-148.14
-161.972
-172.975
-176.429
-168.026
-149.079
-125.88
-100.163
-71.891
-32.804
34.598
139.447
285.659
466.372
656.93
831.383
963.036
1027.243
1013.204
921.261
760.149
549.521
314.001
77.04
-135.883
-303.76
-416.067
-472.229
-484.264
-471.083
-448.776
-424.608
-398.218
-365.646
-323.529
-274.362
-223.598
-176.312
-137.46
-109.613
-92.462
-84.698
-84.242
-88.659
-96.39
-106.345
-116.75
-125.339
-130.688
-132.238
-130.154
-125.348
-118.535
-110.134
-101.038
-92.57
-85.591
-80.459
-77.171
-75.223
-74.128
-73.625
-73.294
-72.579
-71.155
-68.852
-65.61
-61.579
-56.892
-51.588
-45.759
-39.499
-32.853
-25.885
-18.651
-11.179
-3.542
4.195
11.996
19.825
27.663
35.51
43.356
51.207
59.087
67.006
74.966
82.961
90.977
99.006
107.052
115.117
123.204
131.312
139.436
147.568
155.701
163.82
171.904
179.926
187.858
195.673
203.348
210.861
218.188
225.306
232.191
238.818
245.166
251.211
256.927
262.289
267.272
271.854
276.013
279.731
282.989
285.771
288.061
289.847
291.118
291.865
292.082
291.763
290.905
289.508
287.573
285.108
282.118
278.614
274.608
270.118
265.162
259.762
253.939
247.721
241.133
234.206
226.97
219.457
211.699
203.731
195.586
187.302
178.913
170.455
161.964
153.475
145.024
136.643
128.368
120.229
112.257
104.481
96.93
89.629
82.604
75.875
69.464
63.387
57.659
52.294
47.301
42.687
38.455
34.608
31.143
28.058
25.347
22.999
21.005
19.352
18.024
17.007
16.281
15.828
15.628
15.657
15.894
16.316
16.898
17.617
18.446
19.361
20.337
21.349
22.374
23.387
24.366
25.287
26.13
26.876
27.505
28
28.346
28.529
28.538
28.363
27.997
27.436
26.675
25.713
24.554
23.2
21.657
19.932
18.033
15.97
13.757
11.407
8.934
6.357
3.692
0.957
-1.826
-4.637
-7.455
-10.258
-13.027
-15.739
-18.372
-20.905
-23.316
-25.588
-27.699
-29.633
-31.372
-32.899
-34.204
-35.274
-36.101
-36.678
-37.001
-37.068
-36.883
-36.452
-35.781
-34.88
-33.76
-32.436
-30.924
-29.24
-27.401
-25.422
-23.322
-21.124
-18.852
-16.532
-14.19
-11.852
-9.545
-7.296
-5.137
-3.087
-1.162
0.622
2.248
3.69
4.91
5.883
6.594
7.025
7.166
7.017
6.582
5.891
5
3.953
2.794
1.551
0.229
-1.145
-2.538
-3.912
-5.2
-6.37
-7.411
-8.292
-8.983
-9.504
-9.915
-10.334
-10.965
-11.942
-13.347
-15.272
-17.791
-21.003
-25.025
-29.925
-35.726
-42.485
-50.357
-59.414
-69.566
-80.491
-91.516
-101.907
-111.039
-118.183
-122.399
-123.127
-120.383
-114.639
-107.243
-99.832
-93.601
-90.107
-91.515
-97.493
-105.064
-111.555
-112.518
-107.805
-103.599
-99.788
-92.828
-72.817
-20.127
73.786
208.376
375.75
553.26
723.72
872.327
981.146
1043.263
1049.189
991.008
873.918
701.505
485.098
247.204
8.032
-205.914
-370.227
-477.853
-531.67
-547.69
-548.175
-543.946
-537.441
-523.732
-495.132
-452.213
-400.322
-345.711
-294.434
-248.632
-208.769
-176.413
-152.272
-136.038
-126.95
-123.671
-125.297
-131.328
-140.665
-151.065
-160.14
-166.623
-170.224
-171.252
-170.083
-166.82
-161.717
-155.786
-150.365
-146.22
-143.534
-142.041
-141.302
-141.08
-141.211
-141.325
-140.912
-139.61
-137.258
-133.877
-129.592
-124.535
-118.84
-112.635
-106.084
-99.325
-92.459
-85.583
-78.76
-72.008
-65.332
-58.727
-52.175
-45.686
-39.279
-32.952
-26.725
-20.59
-14.509
-8.468
-2.457
3.544
9.544
15.565
21.638
27.762
33.919
40.092
46.263
52.416
58.547
64.639
70.673
76.631
82.492
88.235
93.844
99.297
104.569
109.636
114.47
119.048
123.351
127.36
131.056
134.419
137.429
140.071
142.33
144.193
145.645
146.676
147.274
147.431
147.143
146.407
145.22
143.584
141.502
138.978
136.019
132.637
128.841
124.648
120.073
115.134
109.853
104.251
98.354
92.186
85.775
79.148
72.336
65.368
58.275
51.088
43.839
36.557
29.275
22.022
14.826
7.716
0.719
-6.139
-12.834
-19.341
-25.639
-31.708
-37.53
-43.087
-48.364
-53.348
-58.028
-62.395
-66.442
-70.163
-73.556
-76.619
-79.353
-81.762
-83.85
-85.622
-87.087
-88.252
-89.129
-89.728
-90.062
-90.144
-89.988
-89.609
-89.02
-88.239
-87.28
-86.158
-84.89
-83.489
-81.972
-80.353
-78.648
-76.87
-75.033
-73.151
-71.238
-69.305
-67.367
-65.432
-63.512
-61.617
-59.753
-57.931
-56.155
-54.431
-52.763
-51.156
-49.611
-48.131
-46.718
-45.371
-44.09
-42.872
-41.715
-40.617
-39.574
-38.579
-37.627
-36.712
-35.828
-34.97
-34.128
-33.295
-32.462
-31.622
-30.766
-29.886
-28.975
-28.022
-27.02
-25.962
-24.842
-23.653
-22.39
-21.048
-19.623
-18.116
-16.529
-14.863
-13.121
-11.304
-9.419
-7.471
-5.466
-3.406
-1.294
0.866
3.068
5.299
7.546
9.798
12.045
14.275
16.473
18.622
20.711
22.743
24.715
26.621
28.446
30.158
31.732
33.161
34.432
35.536
36.473
37.243
37.869
38.403
38.888
39.359
39.835
40.307
40.79
41.317
41.929
42.682
43.616
44.728
46.04
47.588
49.341
51.239
53.16
54.91
56.375
57.481
58.124
58.206
57.59
56.117
53.707
50.27
45.603
39.6
32.269
23.799
14.801
6.008
-1.955
-8.34
-12.313
-13.285
-11.027
-6.105
0.004
5.701
9.382
9.511
4.722
-6.406
-22.836
-40.364
-54.775
-61.089
-58.313
-50.678
-36.435
-11.093
34.231
114.635
233.136
385.685
563.945
749.672
929.99
1089.403
1206.71
1266.577
1253.717
1165.693
1014.278
812.092
578.288
330.072
83.304
-135.715
-303.789
-408.226
-447.787
-441.454
-415.178
-384.002
-354.162
-321.89
-278.317
-223.405
-162.612
-101.877
-48.442
-5.915
25.456
45.442
55.069
56.359
50.967
40.158
25.52
8.907
-7.683
-21.921
-32.475
-39.328
-42.762
-43.086
-40.809
-36.613
-31.567
-27.159
-24.263
-22.976
-23.121
-24.35
-26.37
-28.984
-31.805
-34.229
-35.887
-36.674
-36.639
-35.98
-34.825
-33.198
-31.157
-28.817
-26.267
-23.59
-20.845
-18.019
-15.098
-12.085
-8.975
-5.771
-2.47
0.953
4.536
8.306
12.276
16.448
20.813
25.37
30.128
35.093
40.27
45.654
51.237
57.009
62.962
69.085
75.359
81.758
88.249
94.801
101.388
107.983
114.559
121.086
127.533
133.868
140.06
146.078
151.889
157.457
162.748
167.728
172.368
176.64
180.515
183.971
186.984
189.535
191.609
193.19
194.267
194.832
194.878
194.402
193.405
191.891
189.866
187.339
184.324
180.835
176.891
172.514
167.725
162.552
157.021
151.162
145.007
138.589
131.94
125.096
118.092
110.966
103.753
96.491
89.213
81.957
74.755
67.642
60.649
53.806
47.141
40.68
34.449
28.469
22.76
17.342
12.228
7.432
2.964
-1.167
-4.956
-8.4
-11.499
-14.254
-16.671
-18.754
-20.512
-21.956
-23.098
-23.95
-24.529
-24.849
-24.929
-24.786
-24.44
-23.911
-23.218
-22.383
-21.427
-20.369
-19.231
-18.034
-16.797
-15.54
-14.283
-13.043
-11.84
-10.691
-9.613
-8.619
-7.726
-6.945
-6.29
-5.77
-5.393
-5.166
-5.095
-5.186
-5.441
-5.863
-6.452
-7.208
-8.13
-9.215
-10.46
-11.86
-13.408
-15.097
-16.922
-18.872
-20.94
-23.116
-25.39
-27.754
-30.197
-32.712
-35.286
-37.911
-40.575
-43.268
-45.983
-48.71
-51.44
-54.165
-56.878
-59.577
-62.261
-64.933
-67.589
-70.233
-72.866
-75.494
-78.119
-80.743
-83.362
-85.975
-88.585
-91.197
-93.819
-96.457
-99.115
-101.8
-104.522
-107.286
-110.096
-112.951
-115.837
-118.752
-121.698
-124.684
-127.733
-130.863
-134.078
-137.386
-140.786
-144.269
-147.817
-151.398
-154.951
-158.433
-161.808
-165.049
-168.148
-171.081
-173.813
-176.308
-178.514
-180.384
-181.881
-182.981
-183.692
-184.064
-184.171
-184.102
-183.962
-183.851
-183.892
-184.21
-184.895
-186.04
-187.688
-189.929
-193.012
-197.076
-202.062
-207.734
-213.521
-218.788
-223.144
-226.044
-226.6
-224.357
-219.438
-212.453
-204.986
-198.863
-195.261
-195.52
-201.565
-213.045
-227.022
-240.681
-249.604
-252.722
-254.319
-253.689
-245.825
-220.876
-164.429
-71.064
54.709
201.717
355.744
506.83
644.891
758.385
832.329
848.584
799.803
689.068
527.277
334.481
128.608
-74.292
-254.492
-395.504
-489.187
-535.643
-545.867
-537.487
-518.833
-491.305
-456.792
-412.52
-363.564
-320.21
-283.008
-253.79
-231.915
-212.387
-197.822
-189.654
-186.27
-187.734
-191.005
-192.873
-192.645
-189.434
-182.94
-173.727
-162.332
-149.515
-136.354
-123.952
-112.93
-103.679
-96.434
-91.026
-87.187
-84.554
-82.506
-80.405
-77.883
-74.717
-70.818
-66.252
-61.029
-55.164
-48.777
-41.984
-34.875
-27.511
-19.907
-12.071
-4.062
4.036
12.115
20.095
27.938
35.624
43.146
50.503
57.696
64.741
71.676
78.53
85.32
92.057
98.74
105.378
111.993
118.606
125.236
131.899
138.603
145.35
152.141
158.972
165.831
172.705
179.572
186.416
193.221
199.971
206.65
213.24
219.72
226.068
232.264
238.284
244.102
249.692
255.028
260.085
264.84
269.27
273.353
277.067
280.394
283.316
285.818
287.886
289.506
290.669
291.366
291.591
291.342
290.618
289.421
287.754
285.626
283.045
280.024
276.578
272.723
268.479
263.866
258.908
253.631
248.063
242.231
236.165
229.898
223.461
216.888
210.212
203.465
196.68
189.889
183.124
176.414
169.789
163.276
156.9
150.688
144.66
138.838
133.241
127.886
122.786
117.954
113.4
109.131
105.155
101.472
98.085
94.993
92.192
89.677
87.441
85.474
83.766
82.305
81.075
80.063
79.252
78.624
78.161
77.844
77.655
77.574
77.583
