Name,Aleksandre Beruashvili
Date of Birth,"Dec 20, 1998"
Recorded Date,2024-05-18 16:36:17 +0400
Classification,Sinus Rhythm
Symptoms,
Software Version,1.90
Device,"Watch7,2"
Sample Rate,512 hertz


Lead,Lead I
Unit,µV

-96.754
-145.296
-191.999
-235.636
-275.305
-310.622
-341.162
-366.682
-388.073
-404.612
-413.528
-414.5
-408.108
-396.421
-384.86
-371.951
-350.49
-314.334
-255.706
-176.073
-86.759
2.576
81.706
145.624
196.785
236.491
265.964
285.676
294.139
291.827
280.949
264.584
246.353
228.637
212.639
199.004
187.792
178.794
171.45
164.587
156.976
147.976
137.469
125.723
113.19
100.248
87.274
74.797
63.388
53.384
44.869
37.728
31.724
26.629
22.278
18.48
14.981
11.539
7.915
3.89
-0.668
-5.849
-11.706
-18.246
-25.448
-33.311
-41.854
-51.061
-60.782
-70.679
-80.416
-89.765
-98.633
-107.017
-114.65
-121.044
-126.085
-130.369
-134.526
-138.87
-143.371
-146.188
-146.035
-144.109
-140.06
-135.122
-130.728
-122.365
-107.967
-85.638
-51.892
-11.441
30.576
70.929
106.003
137.942
169.656
197.693
213.552
208.856
180.465
140.214
112.187
116.98
166.13
250.312
343.169
418.908
456.449
452.849
420.02
374.221
332.846
302.297
283.553
273.274
265.986
262.408
260.227
258.099
256.113
250.846
243.51
235.998
228.523
222.517
217.14
211.178
204.848
198.264
191.87
186.023
180.481
174.983
169.375
163.568
157.542
151.227
144.561
137.544
130.23
122.725
115.126
107.484
99.843
92.24
84.7
77.269
70
62.946
56.167
49.706
43.585
37.819
32.411
27.352
22.629
18.217
14.081
10.194
6.537
3.092
-0.151
-3.21
-6.106
-8.862
-11.501
-14.045
-16.513
-18.923
-21.294
-23.641
-25.979
-28.319
-30.668
-33.038
-35.44
-37.882
-40.376
-42.93
-45.55
-48.239
-51.001
-53.838
-56.749
-59.731
-62.779
-65.885
-69.044
-72.245
-75.479
-78.734
-81.997
-85.257
-88.5
-91.712
-94.88
-97.99
-101.027
-103.979
-106.829
-109.566
-112.174
-114.642
-116.956
-119.104
-121.077
-122.864
-124.458
-125.851
-127.039
-128.019
-128.791
-129.356
-129.719
-129.885
-129.861
-129.659
-129.289
-128.764
-128.096
-127.297
-126.382
-125.367
-124.27
-123.11
-121.907
-120.68
-119.449
-118.231
-117.048
-115.915
-114.842
-113.84
-112.921
-112.1
-111.405
-110.861
-110.489
-110.305
-110.323
-110.546
-110.975
-111.599
-112.385
-113.301
-114.313
-115.389
-116.516
-117.674
-118.834
-119.953
-120.97
-121.821
-122.461
-122.847
-122.947
-122.761
-122.309
-121.661
-120.93
-120.211
-119.613
-119.252
-119.224
-119.642
-120.614
-122.215
-124.597
-128.001
-132.582
-138.375
-145.239
-152.781
-160.57
-168.202
-175.064
-180.367
-183.445
-184.025
-182.435
-179.503
-176.408
-174.311
-174.31
-177.995
-185.391
-194.235
-202.245
-206.555
-207.862
-211.246
-216.736
-219.588
-207.08
-160.466
-73.385
50.379
197.078
345.857
489.013
623.756
746.023
851.224
921.473
939.486
901.82
813.064
690.166
549.851
395.192
229.268
55.982
-113.748
-255.415
-352.957
-402.329
-411.382
-401.509
-386.783
-371.381
-354.619
-330.362
-297.677
-260.766
-223.418
-189.679
-161.493
-139.009
-122.292
-110.583
-102.572
-97.12
-93.599
-91.734
-91.104
-90.631
-88.985
-85.525
-80.39
-74.118
-67.172
-59.78
-52.177
-45.016
-39.211
-35.257
-33.159
-32.579
-33.034
-34.167
-35.743
-37.431
-38.788
-39.505
-39.419
-38.473
-36.721
-34.211
-30.949
-26.97
-22.368
-17.246
-11.738
-6.015
-0.216
5.532
11.129
16.517
21.656
26.511
31.065
35.314
39.253
42.894
46.247
49.307
52.088
54.616
56.939
59.132
61.265
63.391
65.554
67.787
70.119
72.581
75.191
77.959
80.894
84.01
87.326
90.866
94.65
98.687
102.976
107.519
112.314
117.366
122.681
128.254
134.071
140.117
146.381
152.84
159.468
166.217
173.024
179.841
186.631
193.364
200.026
206.594
213.039
219.341
225.478
231.431
237.188
242.728
248.021
253.07
257.884
262.503
266.993
271.38
275.656
279.805
283.785
287.541
291.023
294.155
296.851
299.056
300.721
301.803
302.274
302.06
301.073
299.202
296.304
292.28
287.065
280.609
272.9
263.971
253.865
242.662
230.465
217.314
203.249
188.326
172.601
156.184
139.208
121.825
104.224
86.597
69.135
52.018
35.384
19.317
3.886
-10.864
-24.891
-38.096
-50.387
-61.706
-72.007
-81.285
-89.548
-96.827
-103.191
-108.754
-113.666
-118.056
-122.02
-125.614
-128.882
-131.869
-134.636
-137.274
-139.854
-142.427
-145.037
-147.718
-150.503
-153.409
-156.424
-159.493
-162.528
-165.47
-168.285
-170.962
-173.498
-175.884
-178.103
-180.137
-181.988
-183.663
-185.167
-186.504
-187.669
-188.669
-189.529
-190.292
-191.011
-191.723
-192.452
-193.213
-194.016
-194.872
-195.793
-196.777
-197.815
-198.899
-200.022
-201.183
-202.38
-203.611
-204.861
-206.117
-207.365
-208.593
-209.792
-210.954
-212.069
-213.133
-214.141
-215.091
-215.987
-216.829
-217.615
-218.347
-219.022
-219.641
-220.207
-220.72
-221.181
-221.593
-221.958
-222.281
-222.567
-222.82
-223.046
-223.251
-223.442
-223.623
-223.804
-223.989
-224.186
-224.402
-224.644
-224.917
-225.229
-225.584
-225.988
-226.446
-226.962
-227.539
-228.18
-228.885
-229.656
-230.492
-231.392
-232.355
-233.379
-234.459
-235.594
-236.78
-238.011
-239.283
-240.591
-241.928
-243.288
-244.663
-246.048
-247.433
-248.812
-250.176
-251.517
-252.828
-254.1
-255.327
-256.5
-257.612
-258.656
-259.626
-260.516
-261.32
-262.033
-262.651
-263.17
-263.587
-263.9
-264.108
-264.209
-264.205
-264.094
-263.878
-263.558
-263.137
-262.617
-262
-261.29
-260.491
-259.607
-258.642
-257.602
-256.491
-255.315
-254.08
-252.792
-251.457
-250.08
-248.669
-247.229
-245.766
-244.286
-242.795
-241.299
-239.803
-238.313
-236.833
-235.368
-233.922
-232.499
-231.102
-229.735
-228.401
-227.101
-225.839
-224.615
-223.433
-222.293
-221.196
-220.144
-219.137
-218.174
-217.255
-216.38
-215.546
-214.753
-213.997
-213.275
-212.585
-211.923
-211.284
-210.665
-210.062
-209.469
-208.881
-208.292
-207.698
-207.091
-206.467
-205.818
-205.139
-204.422
-203.66
-202.848
-201.979
-201.045
-200.04
-198.957
-197.79
-196.533
-195.179
-193.724
-192.162
-190.489
-188.701
-186.796
-184.772
-182.631
-180.373
-178.002
-175.523
-172.941
-170.264
-167.501
-164.662
-161.756
-158.792
-155.781
-152.735
-149.669
-146.6
-143.544
-140.519
-137.541
-134.631
-131.808
-129.09
-126.494
-124.028
-121.7
-119.521
-117.506
-115.672
-114.04
-112.62
-111.418
-110.436
-109.675
-109.135
-108.809
-108.672
-108.687
-108.824
-109.058
-109.381
-109.787
-110.263
-110.781
-111.294
-111.755
-112.138
-112.444
-112.689
-112.874
-112.979
-112.989
-112.951
-112.969
-113.188
-113.689
-114.439
-115.458
-116.887
-119.009
-122.227
-126.746
-132.45
-139.218
-147.063
-155.877
-165.357
-174.673
-182.48
-187.846
-190.258
-189.543
-185.769
-178.777
-169.924
-161.47
-154.464
-150.734
-149.18
-147.5
-149.622
-157.125
-170.933
-192.69
-213.788
-228.226
-235.711
-232.807
-219.517
-192.414
-140.118
-55.114
63.059
210.531
376.185
544.992
705.637
842.642
938.656
982.837
965.149
886.742
757.754
587.007
391.537
186.993
-10.311
-177.368
-303.592
-386.126
-430.048
-452.787
-463.838
-465.605
-457.804
-434.717
-396.57
-349.627
-300.618
-256.601
-221.73
-197.145
-182.65
-176.948
-178.256
-184.065
-191.49
-198.238
-202.212
-201.865
-196.79
-187.086
-173.342
-156.894
-139.203
-121.612
-105.626
-92.301
-82.038
-75.008
-71.019
-69.587
-70.249
-72.426
-75.385
-78.59
-81.698
-84.446
-86.764
-88.61
-89.889
-90.568
-90.615
-89.988
-88.682
-86.691
-84.01
-80.676
-76.756
-72.338
-67.56
-62.56
-57.461
-52.39
-47.425
-42.62
-38.025
-33.669
-29.578
-25.769
-22.234
-18.951
-15.901
-13.055
-10.383
-7.852
-5.405
-2.982
-0.526
2.03
4.734
7.626
10.742
14.112
17.763
21.718
25.989
30.578
35.491
40.73
46.298
52.202
58.442
65.023
71.937
79.167
86.699
94.509
102.564
110.825
119.238
127.741
136.292
144.854
153.401
161.919
170.388
178.789
187.108
195.313
203.378
211.281
218.989
226.479
233.747
240.804
247.688
254.455
261.12
267.677
274.102
280.33
286.294
291.914
297.079
301.706
305.723
309.061
311.68
313.543
314.582
314.724
313.87
311.897
308.737
304.355
298.735
291.92
283.973
274.988
265.116
254.488
243.213
231.395
219.106
206.416
193.423
180.229
166.947
153.722
140.663
127.86
115.401
103.329
91.664
80.404
69.5
58.91
48.621
38.628
28.943
19.593
10.583
1.924
-6.372
-14.313
-21.902
-29.137
-36.026
-42.562
-48.723
-54.483
-59.798
-64.626
-68.945
-72.743
-76.016
-78.772
-81.02
-82.773
-84.057
-84.893
-85.299
-85.296
-84.901
-84.133
-83.021
-81.592
-79.879
-77.916
-75.735
-73.365
-70.836
-68.175
-65.407
-62.555
-59.639
-56.679
-53.693
-50.704
-47.731
-44.794
-41.91
-39.095
-36.366
-33.736
-31.218
-28.82
-26.549
-24.412
-22.413
-20.554
-18.837
-17.263
-15.829
-14.533
-13.374
-12.347
-11.446
-10.668
-10.005
-9.451
-8.999
-8.643
-8.374
-8.185
-8.07
-8.02
-8.029
-8.091
-8.199
-8.347
-8.529
-8.74
-8.975
-9.228
-9.497
-9.776
-10.064
-10.358
-10.657
-10.961
-11.269
-11.583
-11.903
-12.233
-12.572
-12.925
-13.293
-13.679
-14.085
-14.515
-14.971
-15.456
-15.972
-16.522
-17.107
-17.73
-18.392
-19.093
-19.835
-20.618
-21.441
-22.304
-23.207
-24.148
-25.126
-26.141
-27.189
-28.27
-29.381
-30.518
-31.681
-32.864
-34.066
-35.283
-36.511
-37.747
-38.988
-40.231
-41.473
-42.711
-43.942
-45.164
-46.375
-47.574
-48.759
-49.929
-51.084
-52.222
-53.345
-54.453
-55.547
-56.629
-57.699
-58.76
-59.814
-60.862
-61.907
-62.95
-63.993
-65.038
-66.087
-67.139
-68.198
-69.263
-70.335
-71.415
-72.501
-73.594
-74.692
-75.793
-76.896
-77.998
-79.095
-80.184
-81.262
-82.325
-83.368
-84.386
-85.377
-86.333
-87.252
-88.127
-88.953
-89.725
-90.436
-91.081
-91.655
-92.153
-92.57
-92.9
-93.141
-93.288
-93.339
-93.292
-93.146
-92.899
-92.551
-92.103
-91.556
-90.913
-90.177
-89.351
-88.44
-87.45
-86.387
-85.257
-84.066
-82.821
-81.527
-80.192
-78.82
-77.417
-75.986
-74.534
-73.064
-71.584
-70.099
-68.614
-67.136
-65.671
-64.228
-62.812
-61.425
-60.069
-58.744
-57.448
-56.181
-54.938
-53.714
-52.5
-51.292
-50.089
-48.888
-47.683
-46.466
-45.219
-43.934
-42.614
-41.258
-39.875
-38.471
-37.055
-35.65
-34.294
-33.021
-31.863
-30.836
-29.935
-29.161
-28.517
-28.004
-27.63
-27.376
-27.2
-27.069
-26.957
-26.828
-26.65
-26.357
-25.847
-25.04
-23.877
-22.326
-20.399
-18.103
-15.443
-12.45
-9.165
-5.661
-2.046
1.599
5.217
8.738
12.103
15.21
17.907
20.077
21.627
22.496
22.676
22.164
20.97
19.143
16.723
13.803
10.519
6.899
2.901
-1.604
-6.882
-13.101
-20.276
-28.494
-37.772
-47.906
-58.615
-69.236
-78.724
-86.254
-91.105
-92.585
-90.431
-84.699
-75.634
-64.298
-52.375
-41.432
-33.189
-29.4
-31.33
-39.978
-55.981
-77.645
-101.245
-123.321
-141.124
-155.519
-169.512
-181.814
-185.192
-165.68
-109.596
-13.327
115.522
259.439
402.887
539.978
670.218
796.14
911.101
997.852
1039.409
1021.446
943.266
816.012
650.981
462.627
263.158
63.844
-115.91
-258.81
-355.63
-405.081
-420.036
-418.312
-409.778
-398.673
-383.078
-357.526
-322.576
-282.501
-241.683
-205.242
-175.971
-154.297
-139.901
-131.561
-127.596
-126.378
-126.656
-127.3
-126.794
-123.641
-117.031
-106.811
-93.473
-77.979
-61.183
-43.897
-27.282
-12.572
-0.515
8.574
14.739
18.363
19.796
19.368
17.63
15.187
12.431
9.618
6.894
4.323
2.084
0.395
-0.639
-0.973
-0.584
0.53
2.394
5.023
8.355
12.298
16.749
21.62
26.867
32.458
38.328
44.389
50.522
56.6
62.545
68.3
73.823
79.096
84.105
88.854
93.384
97.748
101.991
106.153
110.264
114.341
118.423
122.551
126.776
131.156
135.736
140.546
145.618
150.97
156.611
162.549
168.782
175.299
182.094
189.155
196.452
203.968
211.685
219.574
227.61
235.758
243.976
252.237
260.532
268.847
277.171
285.478
293.718
301.851
309.83
317.621
325.217
332.592
339.705
346.537
353.074
359.309
365.255
370.874
376.073
380.779
384.921
388.457
391.388
393.71
395.417
396.508
396.967
396.791
395.992
394.544
392.385
389.456
385.668
381.017
375.584
369.432
362.618
355.179
347.115
338.429
329.134
319.219
308.663
297.458
285.606
273.173
260.287
247.095
233.774
220.437
207.118
193.864
180.721
167.745
155.013
142.603
130.585
119.068
108.197
98.086
88.826
80.44
72.884
66.085
59.93
54.341
49.281
44.712
40.605
36.934
33.668
30.774
28.222
25.944
23.833
21.803
19.78
17.732
15.67
13.627
11.664
9.828
8.155
6.671
5.388
4.31
3.43
2.736
2.213
1.863
1.711
1.773
2.062
2.573
3.287
4.174
5.196
6.319
7.508
8.739
9.995
11.269
12.559
13.871
15.208
16.567
17.937
19.312
20.692
22.088
23.515
24.986
26.512
28.095
29.731
31.403
33.078
34.71
36.261
37.692
38.97
40.094
41.073
41.919
42.638
43.199
43.542
43.616
43.398
42.889
42.136
41.199
40.128
39.022
38.013
37.166
36.474
35.818
34.884
33.366
31.179
28.321
24.858
21.129
17.494
14.344
12.377
12.163
13.735
16.879
21.079
25.13
27.832
28.186
24.961
17.209
4.609
-12.925
-35.027
-60.245
-86.884
-113.574
-138.891
-161.679
-181.207
-196.77
-207.901
-215.228
-219.881
-222.653
-224.273
-225.306
-226.06
-227.022
-228.756
-231.1
-233.458
-235.533
-237.11
-238.132
-238.773
-239.004
-238.66
-237.914
-237.13
-236.544
-236.346
-236.565
-237.063
-237.814
-238.837
-240.074
-241.421
-242.744
-243.921
-244.913
-245.735
-246.389
-246.855
-247.092
-247.06
-246.759
-246.199
-245.393
-244.358
-243.099
-241.641
-240.027
-238.31
-236.547
-234.781
-233.031
-231.311
-229.63
-227.997
-226.423
-224.913
-223.458
-222.058
-220.712
-219.423
-218.195
-217.027
-215.91
-214.833
-213.789
-212.767
-211.765
-210.777
-209.798
-208.827
-207.863
-206.907
-205.964
-205.033
-204.115
-203.208
-202.311
-201.421
-200.539
-199.664
-198.792
-197.924
-197.061
-196.203
-195.353
-194.513
-193.684
-192.868
-192.069
-191.289
-190.528
-189.788
-189.071
-188.377
-187.707
-187.059
-186.431
-185.822
-185.228
-184.648
-184.08
-183.52
-182.965
-182.414
-181.866
-181.318
-180.768
-180.211
-179.642
-179.054
-178.44
-177.793
-177.102
-176.36
-175.555
-174.677
-173.719
-172.672
-171.526
-170.269
-168.881
-167.352
-165.678
-163.857
-161.894
-159.8
-157.588
-155.284
-152.924
-150.54
-148.163
-145.819
-143.527
-141.302
-139.154
-137.097
-135.147
-133.307
-131.561
-129.881
-128.231
-126.568
-124.849
-123.013
-120.98
-118.681
-116.06
-113.07
-109.69
-105.912
-101.746
-97.219
-92.361
-87.23
-81.918
-76.541
-71.238
-66.142
-61.366
-57.029
-53.267
-50.193
-47.906
-46.496
-46.015
-46.508
-47.98
-50.391
-53.691
-57.795
-62.562
-67.841
-73.417
-79.043
-84.629
-90.195
-95.803
-101.643
-107.834
-114.333
-121.248
-128.783
-136.814
-145.014
-152.798
-159.243
-163.767
-166.249
-166.357
-163.56
-157.782
-149.271
-138.822
-127.923
-117.666
-108.599
-101.62
-98.251
-99.818
-107.305
-121.32
-140.465
-161.663
-182.284
-199.278
-211.848
-224.576
-240.419
-257.138
-265.293
-245.371
-180.201
-65.553
89.41
264.046
437.933
600.122
746.841
874.446
973.373
1028.714
1026.472
962.94
847.151
694.853
521.493
337.581
150.15
-32.615
-197.067
-328.043
-415.061
-455.093
-455.988
-429.645
-387.885
-342.38
-299.15
-262.719
-234.469
-209.781
-186.077
-161.205
-135.582
-114.86
-101.866
-97.146
-99.579
-105.262
-111.645
-117.424
-121.306
-122.543
-120.758
-115.89
-108.367
-98.888
-88.116
-76.729
-65.557
-55.544
-47.207
-40.624
-35.669
-31.975
-29.196
-27.059
-25.15
-23.001
-20.352
-17.105
-13.263
-8.948
-4.242
0.823
6.157
11.66
17.255
22.874
28.473
34.026
39.476
44.756
49.801
54.563
59.018
63.163
67.003
70.551
73.831
76.869
79.701
82.36
84.874
87.276
89.597
91.871
94.138
96.436
98.806
101.286
103.908
106.702
109.693
112.903
116.352
120.057
124.031
128.287
132.839
137.698
142.87
148.362
154.176
160.311
166.762
173.521
180.578
187.917
195.52
203.368
211.437
219.701
228.131
236.696
245.363
254.095
262.853
271.599
280.291
288.886
297.341
305.612
313.655
321.426
328.883
335.983
342.685
348.95
354.74
360.021
364.759
368.923
372.486
375.422
377.709
379.33
380.267
380.509
380.048
378.878
376.999
374.412
371.123
367.143
362.483
357.162
351.198
344.616
337.441
329.704
321.438
312.677
303.459
293.823
283.812
273.467
262.835
251.958
240.884
229.657
218.324
206.931
195.522
184.141
172.832
161.638
150.598
139.751
129.136
118.787
108.738
99.02
89.662
80.689
72.125
63.992
56.307
49.085
42.339
36.077
30.306
25.03
20.249
15.96
12.158
8.836
5.983
3.586
1.631
0.102
-1.021
-1.757
-2.127
-2.153
-1.859
-1.269
-0.408
0.699
2.027
3.549
5.241
7.077
9.031
11.079
13.196
15.36
17.547
19.735
21.905
24.036
26.111
28.112
30.024
31.833
33.527
35.095
36.528
37.819
38.961
39.949
40.782
41.457
41.974
42.333
42.537
42.589
42.493
42.254
41.878
41.373
40.744
40.001
39.151
38.205
37.17
36.057
34.875
33.634
32.344
31.015
29.656
28.276
26.885
25.492
24.104
22.728
21.373
20.044
18.747
17.487
16.268
15.093
13.967
12.89
11.864
10.891
9.97
9.1
8.281
7.511
6.788
6.108
5.468
4.865
4.295
3.753
3.235
2.736
2.25
1.773
1.299
0.824
0.341
-0.153
-0.665
-1.197
-1.755
-2.342
-2.962
-3.618
-4.312
-5.046
-5.822
-6.641
-7.505
-8.412
-9.364
-10.359
-11.396
-12.473
-13.589
-14.74
-15.924
-17.138
-18.377
-19.639
-20.918
-22.211
-23.513
-24.82
-26.126
-27.427
-28.718
-29.993
-31.247
-32.476
-33.676
-34.84
-35.966
-37.05
-38.089
-39.078
-40.017
-40.901
-41.73
-42.502
-43.215
-43.869
-44.464
-44.998
-45.473
-45.888
-46.246
-46.546
-46.79
-46.979
-47.115
-47.199
-47.233
-47.219
-47.158
-47.053
-46.905
-46.719
-46.496
-46.24
-45.955
-45.643
-45.309
-44.956
-44.587
-44.206
-43.814
-43.416
-43.014
-42.61
-42.207
-41.808
-41.414
-41.027
-40.651
-40.286
-39.935
-39.6
-39.282
-38.985
-38.71
-38.459
-38.236
-38.043
-37.884
-37.761
-37.678
-37.635
-37.637
-37.682
-37.773
-37.907
-38.083
-38.298
-38.55
-38.836
-39.154
-39.5
-39.873
-40.27
-40.692
-41.135
-41.598
-42.077
-42.566
-43.059
-43.55
-44.031
-44.491
-44.921
-45.309
-45.647
-45.925
-46.135
-46.265
-46.302
-46.227
-46.026
-45.695
-45.23
-44.635
-43.921
-43.1
-42.195
-41.243
-40.276
-39.325
-38.414
-37.555
-36.756
-36.024
-35.366
-34.792
-34.3
-33.864
-33.452
-33.023
-32.53
-31.925
-31.142
-30.09
-28.686
-26.869
-24.592
-21.843
-18.631
-14.98
-10.919
-6.492
-1.774
3.131
8.098
12.999
17.719
22.15
26.163
29.604
32.324
34.214
35.197
35.243
34.363
32.586
29.949
26.518
22.403
17.735
12.674
7.346
1.795
-3.944
-9.81
-15.702
-21.499
-27.135
-32.641
-38.031
-43.277
-48.363
-53.329
-58.351
-63.691
-69.49
-75.656
-82.038
-88.588
-94.964
-100.477
-104.452
-106.028
-105.538
-105.05
-104.934
-104.485
-101.848
-93.035
-79.525
-66.479
-59.027
-64.381
-83.414
-112.588
-147.931
-179.389
-195.735
-184.461
-133.38
-40.573
87.198
236.637
392.21
545.017
690.523
821.698
928.55
996.705
1009.772
962.529
859.06
707.531
524.383
324.355
121.201
-65.014
-218.578
-331.073
-401.412
-440.835
-463.94
-478.556
-486.763
-485.083
-468.839
-439.184
-400.914
-360.104
-322.412
-290.514
-265.75
-248.506
-237.795
-232.498
-231.081
-231.486
-232.38
-232.48
-230.033
-224.169
-214.788
-202.096
-187.016
-170.758
-154.157
-138.237
-124.309
-113.062
-104.789
-99.582
-97.059
-96.736
-98.227
-100.943
-104.162
-107.433
-110.409
-112.809
-114.534
-115.447
-115.405
-114.391
-112.421
-109.501
-105.659
-100.917
-95.3
-88.91
-81.872
-74.308
-66.364
-58.158
-49.811
-41.472
-33.26
-25.27
-17.574
-10.201
-3.165
3.515
9.844
15.844
21.543
26.991
32.234
37.311
42.271
47.166
52.051
56.994
62.047
67.248
72.63
78.213
84.014
90.049
96.326
102.84
109.59
116.571
123.781
131.22
138.882
146.755
154.826
163.076
171.486
180.037
188.709
197.477
206.316
215.198
224.096
232.983
241.827
250.593
259.244
267.74
276.043
284.112
291.905
299.381
306.498
313.217
319.498
325.305
330.601
335.351
339.522
343.083
346.005
348.262
349.83
350.688
350.818
350.206
348.84
346.714
343.824
340.169
335.753
330.584
324.672
318.032
310.683
302.647
293.948
284.615
274.681
264.178
253.146
241.623
229.65
217.272
204.534
191.481
178.161
164.622
150.912
137.079
123.172
109.238
95.326
81.481
67.75
54.176
40.802
27.669
14.815
2.277
-9.911
-21.717
-33.113
-44.072
-54.573
-64.593
-74.118
-83.131
-91.623
-99.586
-107.013
-113.904
-120.259
-126.081
-131.376
-136.152
-140.421
-144.194
-147.486
-150.314
-152.696
-154.652
-156.201
-157.367
-158.172
-158.639
-158.793
-158.659
-158.26
-157.622
-156.769
-155.727
-154.517
-153.165
-151.692
-150.12
-148.47
-146.761
-145.012
-143.241
-141.463
-139.693
-137.946
-136.233
-134.566
-132.954
-131.406
-129.93
-128.53
-127.213
-125.982
-124.839
-123.788
-122.827
-121.957
-121.177
-120.485
-119.878
-119.354
-118.906
-118.532
-118.226
-117.982
-117.795
-117.658
-117.566
-117.511
-117.488
-117.491
-117.512
-117.546
-117.587
-117.629
-117.666
-117.693
-117.704
-117.695
-117.661
-117.597
-117.5
-117.366
-117.192
-116.973
-116.708
-116.395
-116.03
-115.613
-115.143
-114.617
-114.037
-113.402
-112.712
-111.969
-111.174
-110.328
-109.433
-108.492
-107.506
-106.477
-105.409
-104.304
-103.165
-101.993
-100.793
-99.566
-98.316
-97.045
-95.757
-94.453
-93.138
-91.812
-90.48
-89.144
-87.806
-86.47
-85.137
-83.81
-82.491
-81.184
-79.889
-78.608
-77.342
-76.094
-74.863
-73.65
-72.455
-71.279
-70.121
-68.982
-67.862
-66.759
-65.675
-64.609
-63.562
-62.533
-61.523
-60.532
-59.562
-58.612
-57.683
-56.777
-55.894
-55.036
-54.204
-53.398
-52.622
-51.875
-51.158
-50.474
-49.824
-49.208
-48.63
-48.09
-47.592
-47.138
-46.73
-46.372
-46.067
-45.819
-45.631
-45.506
-45.449
-45.462
-45.548
-45.712
-45.954
-46.28
-46.689
-47.185
-47.769
-48.442
-49.205
-50.056
-50.998
-52.028
-53.146
-54.351
-55.641
-57.015
-58.47
-60.004
-61.615
-63.298
-65.051
-66.868
-68.744
-70.672
-72.646
-74.658
-76.7
-78.762
-80.835
-82.909
-84.974
-87.018
-89.03
-90.998
-92.91
-94.754
-96.518
-98.189
-99.755
-101.205
-102.527
-103.711
-104.745
-105.62
-106.326
-106.854
-107.196
-107.342
-107.285
-107.017
-106.532
-105.826
-104.893
-103.732
-102.343
-100.729
-98.896
-96.85
-94.599
-92.153
-89.522
-86.72
-83.758
-80.653
-77.418
-74.074
-70.639
-67.136
-63.587
-60.015
-56.44
-52.883
-49.359
-45.883
-42.469
-39.127
-35.87
-32.712
-29.667
-26.758
-24.001
-21.405
-18.977
-16.725
-14.647
-12.739
-10.989
-9.375
-7.88
-6.491
-5.2
-3.999
-2.866
-1.776
-0.696
0.398
1.51
2.642
3.799
4.999
6.245
7.528
8.777
9.921
10.95
11.78
12.271
12.202
11.204
8.952
5.288
0.088
-6.771
-15.075
-24.348
-33.847
-42.321
-48.581
-51.797
-51.263
-46.499
-37.822
-26.135
-12.775
-0.134
9.229
13.276
9.834
-1.969
-20.148
-41.998
-64.543
-86.257
-110.303
-138.873
-168.678
-189.69
-183.749
-134.712
-37.789
100.093
261.566
428.064
587.68
734.581
864.673
970.755
1043.185
1068.931
1038.064
949.93
806.611
620.111
411.803
202.507
18.062
-122.161
-215.42
-267.16
-292.624
-308.386
-319.858
-326.301
-323.117
-305.698
-276.096
-239.659
-202.017
-167.936
-139.238
-116.635
-100.628
-90.56
-85.441
-84.055
-84.864
-86.896
-89.424
-91.176
-90.899
-88.007
-82.42
-74.588
-65.3
-55.162
-44.775
-35.068
-27.009
-21.16
-17.71
-16.496
-17.091
-19.084
-22.048
-25.434
-28.695
-31.486
-33.64
-35.104
-35.908
-36.04
-35.442
-34.124
-32.139
-29.528
-26.333
-22.609
-18.417
-13.891
-9.219
-4.559
-0.02
4.329
8.465
12.364
15.999
19.356
22.431
25.229
27.758
30.022
32.019
33.768
35.304
36.688
38.004
39.322
40.694
42.166
43.768
45.532
47.487
49.655
52.038
54.647
57.498
60.609
64.012
67.725
71.748
76.075
80.696
85.591
90.744
96.128
101.699
107.419
113.256
119.18
125.184
131.257
137.38
143.532
149.684
155.821
161.952
168.093
174.249
180.438
186.678
193
199.47
206.134
213.008
220.104
227.396
234.841
242.405
250.046
257.708
265.327
272.81
280.03
286.877
293.231
298.959
303.919
307.931
310.827
312.491
312.823
311.77
309.312
305.442
300.154
293.476
285.44
276.09
265.543
253.913
241.324
227.934
213.916
199.484
184.866
170.273
155.877
141.821
128.214
115.136
102.692
90.956
80.01
69.949
60.796
52.56
45.247
38.826
33.245
28.423
24.235
20.537
17.229
14.234
11.494
8.986
6.657
4.457
2.333
0.216
-1.93
-4.123
-6.388
-8.735
-11.149
-13.604
-16.034
-18.341
-20.466
-22.373
-24.038
-25.463
-26.636
-27.54
-28.17
-28.516
-28.575
-28.353
-27.849
-27.062
-26.01
-24.717
-23.228
-21.605
-19.893
-18.123
-16.324
-14.511
-12.703
-10.918
-9.168
-7.456
-5.79
-4.18
-2.637
-1.176
0.194
1.471
2.652
3.741
4.74
5.646
6.457
7.171
7.784
8.291
8.687
8.961
9.107
9.12
8.996
8.734
8.332
7.788
7.101
6.272
5.302
4.19
2.938
1.545
0.013
-1.656
-3.461
-5.397
-7.463
-9.654
-11.966
-14.394
-16.933
-19.578
-22.324
-25.165
-28.095
-31.106
-34.193
-37.348
-40.563
-43.83
-47.141
-50.487
-53.859
-57.248
-60.646
-64.044
-67.434
-70.808
-74.157
-77.475
-80.754
-83.988
-87.169
-90.29
-93.345
-96.33
-99.237
-102.062
-104.802
-107.451
-110.007
-112.467
-114.829
-117.091
-119.251
-121.309
-123.264
-125.117
-126.867
-128.516
-130.066
-131.519
-132.877
-134.143
-135.321
-136.414
-137.426
-138.361
-139.223
-140.016
-140.744
-141.412
-142.024
-142.583
-143.094
-143.561
-143.987
-144.374
-144.728
-145.05
-145.343
-145.609
-145.851
-146.071
-146.27
-146.449
-146.61
-146.753
-146.88
-146.991
-147.085
-147.162
-147.223
-147.266
-147.289
-147.291
-147.27
-147.224
-147.151
-147.047
-146.91
-146.738
-146.527
-146.276
-145.983
-145.646
-145.263
-144.834
-144.357
-143.833
-143.261
-142.641
-141.974
-141.259
-140.497
-139.691
-138.84
-137.946
-137.012
-136.038
-135.028
-133.984
-132.909
-131.805
-130.676
-129.526
-128.36
-127.181
-125.994
-124.806
-123.621
-122.445
-121.283
-120.141
-119.024
-117.935
-116.877
-115.852
-114.861
-113.904
-112.982
-112.092
-111.236
-110.412
-109.62
-108.858
-108.128
-107.43
-106.761
-106.119
-105.499
-104.895
-104.3
-103.706
-103.105
-102.486
-101.838
-101.149
-100.413
-99.622
-98.766
-97.833
-96.802
-95.66
-94.403
-93.032
-91.55
-89.968
-88.298
-86.559
-84.792
-83.032
-81.314
-79.667
-78.096
-76.604
-75.199
-73.891
-72.689
-71.59
-70.559
-69.555
-68.544
-67.486
-66.338
-65.046
-63.504
-61.624
-59.34
-56.599
-53.404
-49.771
-45.71
-41.246
-36.431
-31.34
-26.097
-20.843
-15.67
-10.677
-5.96
-1.621
2.166
5.252
7.529
8.893
9.324
8.828
7.398
5.078
1.967
-1.84
-6.161
-10.776
-15.657
-20.828
-26.37
-32.481
-39.193
-46.456
-54.372
-62.983
-72.077
-81.302
-90.039
-97.476
-103.174
-106.859
-108.074
-106.588
-102.511
-96.233
-88.62
-80.756
-73.416
-67.318
-63.502
-63.017
-66.726
-75.156
-88.609
-106.063
-124.62
-141.425
-153.435
-160.422
-167.786
-179.117
-192.085
-197.319
-175.914
-111.008
0.811
152.758
328.067
506.433
675.958
825.724
942.899
1016.728
1035.04
993.799
901.17
769.351
611.242
435.901
249.444
61.021
-113.029
-253.473
-348.533
-396.979
-410.472
-407.048
-397.488
-385.382
-368.747
-342.806
-308.288
-269.601
-230.887
-195.95
-166.3
-141.901
-122.569
-107.739
-96.357
-87.165
-79.586
-73.622
-69.01
-65.199
-61.41
-56.697
-50.936
-44.672
-38.152
-31.485
-24.864
-18.511
-12.979
-9.072
-7.035
-6.638
-7.555
-9.316
-11.574
-14.12
-16.582
-18.47
-19.439
-19.306
-18.03
-15.72
-12.45
-8.251
-3.19
2.632
9.063
15.93
23.056
30.275
37.475
44.57
51.479
58.135
64.472
70.445
76.049
81.312
86.251
90.88
95.209
99.254
103.062
106.7
110.235
113.74
117.269
120.86
124.555
128.39
132.391
136.582
140.969
145.55
150.331
155.321
160.53
165.969
171.639
177.534
183.651
189.982
196.518
203.251
210.165
217.245
224.477
231.844
239.329
246.913
254.575
262.286
270.018
277.739
285.415
293.011
300.489
307.81
314.936
321.828
328.448
334.757
340.718
346.294
351.45
356.151
360.363
364.056
367.198
369.764
371.727
373.065
373.759
373.792
373.15
371.824
369.808
367.098
363.694
359.6
354.823
349.373
343.265
336.516
329.146
321.18
312.645
303.571
293.991
283.941
273.458
262.581
251.352
239.812
228.004
215.974
203.765
191.423
178.991
166.515
154.04
141.608
129.262
117.044
104.992
93.146
81.541
70.212
59.19
48.505
38.184
28.253
18.733
9.644
1.004
-7.175
-14.879
-22.101
-28.835
-35.078
-40.83
-46.092
-50.87
-55.171
-59.004
-62.38
-65.313
-67.817
-69.909
-71.607
-72.929
-73.896
-74.528
-74.846
-74.872
-74.629
-74.138
-73.42
-72.499
-71.395
-70.129
-68.721
-67.193
-65.561
-63.847
-62.066
-60.235
-58.372
-56.491
-54.606
-52.731
-50.877
-49.055
-47.275
-45.546
-43.877
-42.272
-40.74
-39.285
-37.91
-36.621
-35.419
-34.308
-33.288
-32.362
-31.529
-30.791
-30.147
-29.598
-29.143
-28.782
-28.514
-28.34
-28.258
-28.268
-28.369
-28.56
-28.839
-29.206
-29.658
-30.195
-30.814
-31.512
-32.289
-33.142
-34.067
-35.064
-36.128
-37.256
-38.446
-39.693
-40.994
-42.344
-43.739
-45.176
-46.647
-48.15
-49.679
-51.228
-52.791
-54.363
-55.938
-57.51
-59.071
-60.616
-62.138
-63.63
-65.087
-66.502
-67.869
-69.182
-70.436
-71.626
-72.747
-73.795
-74.766
-75.657
-76.465
-77.187
-77.824
-78.373
-78.834
-79.209
-79.498
-79.704
-79.829
-79.876
-79.85
-79.755
-79.596
-79.379
-79.111
-78.798
-78.448
-78.069
-77.669
-77.257
-76.841
-76.431
-76.036
-75.665
-75.327
-75.03
-74.786
-74.601
-74.485
-74.445
-74.491
-74.628
-74.864
-75.205
-75.656
-76.221
-76.904
-77.709
-78.637
-79.69
-80.869
-82.173
-83.6
-85.15
-86.817
-88.6
-90.491
-92.486
-94.577
-96.757
-99.018
-101.352
-103.749
-106.199
-108.691
-111.216
-113.762
-116.316
-118.867
-121.403
-123.911
-126.38
-128.797
-131.152
-133.432
-135.629
-137.731
-139.73
-141.617
-143.383
-145.021
-146.523
-147.882
-149.094
-150.153
-151.056
-151.8
-152.384
-152.807
-153.07
-153.173
-153.12
-152.913
-152.555
-152.049
-151.402
-150.619
-149.707
-148.671
-147.52
-146.263
-144.909
-143.465
-141.94
-140.34
-138.673
-136.946
-135.165
-133.335
-131.458
-129.539
-127.583
-125.593
-123.573
-121.527
-119.458
-117.372
-115.271
-113.157
-111.03
-108.888
-106.725
-104.537
-102.318
-100.059
-97.754
-95.396
-92.978
-90.496
-87.952
-85.339
-82.651
-79.88
-77.011
-74.039
-70.965
-67.79
-64.525
-61.187
-57.8
-54.404
-51.04
-47.736
-44.509
-41.367
-38.303
-35.315
-32.398
-29.542
-26.758
-24.05
-21.415
-18.863
-16.391
-13.969
-11.559
-9.092
-6.488
-3.713
-0.762
2.361
5.612
8.943
12.289
15.556
18.684
21.639
24.397
26.957
29.31
31.402
33.166
34.517
35.356
35.649
35.395
34.589
33.255
31.435
29.218
26.755
24.156
21.448
18.577
15.451
12.039
8.407
4.561
0.384
-4.357
-9.934
-16.434
-23.724
-31.745
-40.589
-50.225
-60.31
-69.954
-77.979
-83.618
-86.615
-86.839
-84.1
-78.509
-70.728
-62.352
-55.721
-52.683
-54.344
-61.792
-74.521
-90.045
-106.1
-119.2
-128.946
-139.334
-149.08
-153.269
-139.719
-90.29
0.03
126.881
277.187
431.363
583.588
731.929
870.893
992.106
1073.235
1093.772
1048.019
942.227
795.779
626.847
444.398
254.91
65.47
-108.146
-245.281
-334.061
-373.72
-377.543
-365.546
-349.264
-332.721
-314.031
-287.899
-254.585
-218.027
-182.118
-151.109
-127.08
-109.87
-98.575
-91.679
-87.527
-84.775
-82.593
-80.279
-76.769
-71.087
-62.883
-52.296
-39.926
-26.607
-12.962
0.429
12.693
22.912
30.589
35.588
38.082
38.49
37.179
34.514
31.04
27.342
23.849
20.832
18.422
16.65
15.595
15.335
15.881
17.203
19.252
21.974
25.326
29.253
33.661
38.416
43.378
48.407
53.377
58.201
62.815
67.164
71.206
74.916
78.289
81.332
84.069
86.527
88.73
90.717
92.534
94.239
95.901
97.59
99.377
101.322
103.472
105.871
108.556
111.556
114.89
118.573
122.61
127.016
131.811
137.007
142.603
148.591
154.955
161.674
168.723
176.062
183.637
191.395
199.286
207.277
215.354
223.496
231.678
239.873
248.042
256.168
264.257
272.299
280.279
288.184
295.998
303.743
311.477
319.234
327.028
334.838
342.599
350.263
357.788
365.108
372.154
378.822
384.971
390.512
395.382
399.507
402.823
405.205
406.477
406.514
405.228
402.569
398.528
393.07
386.153
377.8
368.06
357.026
344.829
331.521
317.128
301.713
285.342
268.157
250.355
232.089
213.487
194.685
175.814
157.048
138.592
120.566
103.057
86.128
69.82
54.255
39.57
25.85
13.163
1.521
-9.11
-18.733
-27.348
-35.012
-41.803
-47.847
-53.31
-58.288
-62.852
-67.068
-70.999
-74.758
-78.463
-82.186
-85.981
-89.881
-93.904
-98.085
-102.452
-106.985
-111.639
-116.345
-121.009
-125.579
-130.027
-134.319
-138.427
-142.312
-145.936
-149.292
-152.387
-155.228
-157.82
-160.164
-162.259
-164.133
-165.822
-167.367
-168.817
-170.203
-171.545
-172.865
-174.178
-175.495
-176.825
-178.163
-179.496
-180.816
-182.119
-183.4
-184.657
-185.881
-187.06
-188.183
-189.239
-190.22
-191.119
-191.93
-192.647
-193.267
-193.79
-194.215
-194.545
-194.78
-194.92
-194.965
-194.912
-194.762
-194.513
-194.164
-193.715
-193.167
-192.519
-191.774
-190.934
-190.002
-188.981
-187.874
-186.685
-185.419
-184.078
-182.667
-181.191
-179.653
-178.058
-176.411
-174.716
-172.977
-171.197
-169.381
-167.532
-165.654
-163.75
-161.823
-159.878
-157.918
-155.948
-153.971
-151.992
-150.016
-148.047
-146.09
-144.15
-142.232
-140.339
-138.476
-136.647
-134.857
-133.109
-131.408
-129.757
-128.16
-126.622
-125.145
-123.734
-122.391
-121.12
-119.925
-118.807
-117.77
-116.816
-115.947
-115.167
-114.475
-113.874
-113.363
-112.943
-112.613
-112.371
-112.216
-112.143
-112.151
-112.235
-112.391
-112.613
-112.898
-113.238
-113.629
-114.062
-114.532
-115.031
-115.552
-116.087
-116.629
-117.169
-117.7
-118.215
-118.704
-119.162
-119.579
-119.949
-120.263
-120.516
-120.7
-120.808
-120.835
-120.777
-120.628
-120.386
-120.048
-119.613
-119.079
-118.447
-117.718
-116.895
-115.98
-114.978
-113.892
-112.729
-111.494
-110.196
-108.841
-107.438
-105.995
-104.521
-103.025
-101.516
-100.003
-98.496
-97.004
-95.536
-94.103
-92.714
-91.377
-90.103
-88.899
-87.774
-86.735
-85.789
-84.94
-84.194
-83.555
-83.024
-82.603
-82.293
-82.093
-81.999
-82.01
-82.12
-82.322
-82.61
-82.973
-83.403
-83.887
-84.415
-84.975
-85.555
-86.14
-86.718
-87.277
-87.802
-88.281
-88.699
-89.042
-89.296
-89.449
-89.488
-89.402
-89.18
-88.811
-88.29
-87.612
-86.772
-85.769
-84.599
-83.263
-81.763
-80.105
-78.296
-76.342
-74.251
-72.032
-69.696
-67.257
-64.732
-62.134
-59.473
-56.762
-54.014
-51.246
-48.477
-45.714
-42.964
-40.232
-37.526
-34.86
-32.256
-29.727
-27.282
-24.934
-22.689
-20.554
-18.537
-16.624
-14.798
-13.034
-11.302
-9.59
-7.895
-6.217
-4.566
-2.933
-1.28
0.422
2.217
4.16
6.228
8.41
10.725
13.059
15.267
17.148
18.311
18.429
17.428
15.25
11.926
7.735
2.821
-2.496
-7.385
-11.084
-13.097
-13.038
-10.997
-7.461
-2.521
3.518
9.551
14.214
16.018
13.724
6.863
-4.431
-20.393
-41.333
-65.15
-87.262
-103.123
-108.068
-102.326
-91.84
-77.416
-56.689
-21.315
45.173
148.658
287.172
452.302
622.422
781.617
916.941
1013.174
1065.8
1068.141
1013.885
907.12
749.552
551.166
333.237
116.346
-72.708
-212.847
-300.27
-339.219
-343.414
-329.144
-303.781
-272.527
-241.299
-213.944
-195.057
-185.401
-178.299
-167.658
-150.927
-129.741
-110.281
-96.603
-88.879
-85.4
-83.158
-80.61
-77.366
-72.488
-65.576
-56.551
-45.422
-32.813
-19.358
-5.427
8.244
20.511
30.613
38.169
43.073
45.647
46.223
45.016
42.441
39.024
35.118
30.96
26.683
22.28
17.829
13.496
9.408
5.696
2.467
-0.223
-2.317
-3.785
-4.644
-4.947
-4.767
-4.171
-3.194
-1.855
-0.17
1.853
4.175
6.741
9.481
12.301
15.13
17.932
20.682
23.38
26.046
28.707
31.407
34.197
37.117
40.195
43.456
46.909
50.581
54.504
58.715
63.264
68.189
73.513
79.254
85.423
92.018
99.033
106.453
114.249
122.396
130.871
139.651
148.714
158.034
167.579
177.313
187.198
197.193
207.258
217.352
227.429
237.446
247.359
257.127
266.708
276.061
285.142
293.908
302.316
310.323
317.89
324.978
331.549
337.568
343.002
347.821
351.999
355.512
358.338
360.46
361.862
362.532
362.463
361.65
360.092
357.79
354.75
350.982
346.497
341.313
335.448
328.927
321.773
314.018
305.692
296.831
287.471
277.651
267.411
256.795
245.846
234.608
223.127
211.448
199.617
187.68
175.683
163.671
151.688
139.777
127.981
116.341
104.898
93.689
82.751
72.119
61.826
51.903
42.377
33.274
24.619
16.43
8.727
1.525
-5.166
-11.335
-16.977
-22.089
-26.67
-30.724
-34.254
-37.27
-39.781
-41.8
-43.34
-44.418
-45.051
-45.258
-45.061
-44.481
-43.542
-42.267
-40.682
-38.814
-36.687
-34.331
-31.773
-29.04
-26.162
-23.166
-20.08
-16.934
-13.755
-10.569
-7.403
-4.284
-1.234
1.721
4.562
7.267
9.817
12.195
14.386
16.374
18.148
19.695
21.007
22.074
22.89
23.448
23.745
23.777
23.544
23.043
22.277
21.248
19.958
18.413
16.619
14.583
12.313
9.82
7.115
4.209
1.116
-2.151
-5.577
-9.147
-12.846
-16.657
-20.564
-24.553
-28.605
-32.707
-36.841
-40.993
-45.147
-49.289
-53.404
-57.477
-61.496
-65.448
-69.318
-73.095
-76.768
-80.325
-83.756
-87.051
-90.202
-93.2
-96.039
-98.712
-101.216
-103.547
-105.702
-107.68
-109.481
-111.106
-112.557
-113.836
-114.948
-115.897
-116.689
-117.33
-117.827
-118.186
-118.416
-118.525
-118.521
-118.413
-118.209
-117.92
-117.555
-117.123
-116.634
-116.099
-115.528
-114.93
-114.316
-113.695
-113.078
-112.472
-111.887
-111.33
-110.809
-110.331
-109.903
-109.528
-109.213
-108.962
-108.777
-108.661
-108.615
-108.642
-108.739
-108.908
-109.147
-109.455
-109.828
-110.266
-110.765
-111.321
-111.932
-112.592
-113.299
-114.046
-114.828
-115.641
-116.478
-117.335
-118.205
-119.082
-119.962
-120.839
-121.707
-122.563
-123.4
-124.215
-125.003
-125.76
-126.482
-127.165
-127.808
-128.406
-128.959
-129.463
-129.919
-130.325
-130.68
-130.982
-131.232
-131.428
-131.57
-131.656
-131.686
-131.659
-131.574
-131.432
-131.231
-130.971
-130.65
-130.268
-129.824
-129.314
-128.738
-128.092
-127.372
-126.576
-125.702
-124.745
-123.702
-122.57
-121.345
-120.025
-118.607
-117.087
-115.462
-113.728
-111.883
-109.924
-107.851
-105.661
-103.357
-100.94
-98.413
-95.784
-93.058
-90.243
-87.348
-84.379
-81.346
-78.26
-75.133
-71.979
-68.812
-65.646
-62.498
-59.387
-56.332
-53.352
-50.462
-47.677
-45.009
-42.471
-40.074
-37.832
-35.755
-33.855
-32.147
-30.643
-29.35
-28.279
-27.437
-26.825
-26.438
-26.264
-26.281
-26.474
-26.827
-27.326
-27.957
-28.69
-29.498
-30.358
-31.245
-32.169
-33.132
-34.104
-35.052
-35.942
-36.767
-37.604
-38.544
-39.592
-40.811
-42.338
-44.387
-47.383
-51.692
-57.372
-64.398
-72.761
-82.27
-92.663
-103.41
-113.344
-121.239
-126.439
-128.617
-127.701
-123.971
-117.795
-110.077
-102.798
-98.299
-98.441
-104.493
-117.103
-136.604
-161.768
-189.132
-214.662
-233.403
-244.062
-249.996
-250.61
-242.282
-215.875
-156.697
-59.377
72.151
227.873
391.167
549.45
694.632
815.429
900.47
939.397
922.466
850.819
733.228
578.075
399.098
209.059
19.945
-148.552
-281.56
-373.796
-424.755
-445.161
-447.778
-435.191
-411.19
-379.541
-341.81
-307.688
-281.644
-259.779
-240.197
-218.088
-192.939
-170.893
-154.667
-145.325
-142.144
-141.834
-142.78
-144.335
-145.162
-144.202
-140.842
-134.878
-126.806
-117.235
-106.586
-95.373
-84.489
-75.015
-67.578
-62.318
-58.979
-57.056
-56.145
-55.911
-55.925
-55.709
-54.962
-53.545
-51.435
-48.729
-45.467
-41.626
-37.219
-32.282
-26.864
-21.047
-14.932
-8.637
-2.291
3.976
10.07
15.925
21.503
26.789
31.781
36.49
40.93
45.101
49.001
52.627
55.993
59.13
62.087
64.929
67.717
70.512
73.364
76.313
79.392
82.626
86.03
89.614
93.392
97.382
101.604
106.081
110.83
115.863
121.182
126.783
132.662
138.812
145.228
151.911
158.852
166.037
173.454
181.084
188.896
196.857
204.911
212.992
221.049
229.036
236.915
244.665
252.258
259.667
266.872
273.837
280.534
286.947
293.043
298.797
304.202
309.257
313.999
318.489
322.75
326.781
330.574
334.082
337.271
340.11
342.522
344.44
345.803
346.532
346.583
345.915
344.45
342.104
338.767
334.292
328.598
321.652
313.413
303.89
293.086
280.997
267.715
253.352
238.014
221.831
204.916
187.38
169.396
151.165
132.889
114.791
97.043
79.764
63.104
47.189
32.146
18.117
5.15
-6.75
-17.567
-27.304
-35.979
-43.613
-50.295
-56.165
-61.329
-65.891
-69.931
-73.486
-76.631
-79.445
-82.006
-84.401
-86.676
-88.842
-90.928
-92.955
-94.925
-96.831
-98.621
-100.204
-101.531
-102.57
-103.305
-103.744
-103.882
-103.703
-103.204
-102.387
-101.257
-99.832
-98.121
-96.132
-93.888
-91.421
-88.779
-86.033
-83.229
-80.4
-77.575
-74.772
-72.007
-69.301
-66.66
-64.086
-61.582
-59.153
-56.806
-54.55
-52.387
-50.314
-48.324
-46.408
-44.556
-42.763
-41.023
-39.328
-37.676
-36.062
-34.485
-32.947
-31.447
-29.984
-28.554
-27.153
-25.778
-24.427
-23.095
-21.782
-20.483
-19.2
-17.931
-16.678
-15.443
-14.225
-13.029
-11.855
-10.708
-9.589
-8.503
-7.454
-6.445
-5.481
-4.566
-3.706
-2.905
-2.166
-1.494
-0.894
-0.369
0.079
0.445
0.729
0.929
1.043
1.071
1.013
0.87
0.642
0.331
-0.06
-0.53
-1.074
-1.688
-2.369
-3.11
-3.906
-4.752
-5.64
-6.563
-7.515
-8.489
-9.476
-10.471
-11.465
-12.452
-13.425
-14.378
-15.305
-16.198
-17.054
-17.866
-18.63
-19.343
-20
-20.599
-21.14
-21.62
-22.04
-22.402
-22.705
-22.954
-23.15
-23.298
-23.401
-23.463
-23.49
-23.488
-23.461
-23.418
-23.363
-23.305
-23.25
-23.204
-23.174
-23.168
-23.189
-23.245
-23.341
-23.482
-23.674
-23.921
-24.228
-24.599
-25.038
-25.549
-26.135
-26.795
-27.532
-28.345
-29.233
-30.194
-31.226
-32.327
-33.491
-34.717
-36
-37.335
-38.719
-40.145
-41.608
-43.103
-44.623
-46.163
-47.717
-49.279
-50.845
-52.409
-53.968
-55.517
-57.051
-58.568
-60.06
-61.524
-62.954
-64.341
-65.68
-66.965
-68.189
-69.349
-70.441
-71.462
-72.409
-73.284
-74.086
-74.814
-75.466
-76.038
-76.525
-76.923
-77.227
-77.431
-77.529
-77.511
-77.372
-77.108
-76.717
-76.192
-75.527
-74.704
-73.716
-72.561
-71.244
-69.769
-68.149
-66.397
-64.533
-62.6
-60.634
-58.671
-56.745
-54.865
-53.037
-51.272
-49.581
-47.972
-46.438
-44.948
-43.456
-41.932
-40.341
-38.648
-36.807
-34.731
-32.34
-29.579
-26.398
-22.785
-18.75
-14.302
-9.466
-4.311
1.073
6.548
11.952
17.156
22.046
26.513
30.463
33.767
36.301
37.972
38.687
38.388
37.076
34.766
31.519
27.479
22.783
17.632
12.315
6.987
1.694
-3.581
-9.057
-14.89
-20.983
-27.289
-33.761
-40.081
-45.984
-51.119
-54.763
-56.591
-56.939
-56.178
-54.93
-54.099
-54.043
-55.118
-58.135
-63.2
-69.645
-76.852
-83.853
-89.694
-94.781
-99.819
-105.108
-111.863
-120.812
-130.786
-140.903
-149.878
-157.236
-166.897
-181.517
-198.247
-207.78
-192.151
-135.021
-32.238
108.876
271.486
437.91
599.235
751.596
887.859
996.578
1061.637
1065.696
1004.391
883.742
713.827
513.502
299.778
89.152
-95.743
-239.518
-335.713
-386.828
-408.633
-417.513
-421.476
-422.028
-414.013
-392.218
-358.109
-316.524
-273.667
-235.019
-202.789
-178.041
-161.097
-150.988
-146.642
-146.656
-149.115
-152.757
-156.308
-157.882
-156.469
-151.87
-144.209
-134.354
-123.4
-112.066
-101.333
-92.503
-86.248
-82.806
-82.183
-83.895
-87.391
-92.227
-97.752
-103.232
-108.22
-112.425
-115.673
-117.944
-119.191
-119.355
-118.468
-116.597
-113.799
-110.14
-105.675
-100.469
-94.647
-88.368
-81.803
-75.12
-68.436
-61.835
-55.392
-49.168
-43.214
-37.554
-32.19
-27.108
-22.297
-17.745
-13.434
-9.335
-5.399
-1.573
2.203
5.994
9.846
13.797
17.878
22.112
26.518
31.109
35.89
40.859
46.02
51.377
56.936
62.699
68.666
74.832
81.19
87.729
94.438
101.307
108.321
115.466
122.727
130.087
137.528
145.032
152.578
160.14
167.692
175.205
182.647
189.988
197.194
204.232
211.069
217.67
224.002
230.033
235.732
241.066
246.006
250.522
254.585
258.171
261.254
263.812
265.825
267.274
268.146
268.428
268.112
267.193
265.667
263.536
260.805
257.481
253.574
249.1
244.075
238.518
232.454
225.908
218.907
211.483
203.667
195.496
187.005
178.231
169.214
159.992
150.607
141.099
131.509
121.877
112.245
102.652
93.137
83.74
74.496
65.441
56.609
48.03
39.735
31.75
24.097
16.8
9.876
3.341
-2.794
-8.517
-13.822
-18.705
-23.164
-27.202
-30.822
-34.03
-36.836
-39.25
-41.287
-42.961
-44.289
-45.29
-45.984
-46.392
-46.535
-46.438
-46.122
-45.613
-44.934
-44.109
-43.163
-42.118
-40.997
-39.823
-38.616
-37.396
-36.18
-34.986
-33.829
-32.722
-31.678
-30.707
-29.817
-29.018
-28.313
-27.708
-27.204
-26.805
-26.509
-26.316
-26.223
-26.226
-26.323
-26.507
-26.774
-27.117
-27.529
-28.003
-28.532
-29.108
-29.724
-30.371
-31.042
-31.73
-32.428
-33.13
-33.829
-34.521
-35.202
-35.868
-36.516
-37.144
-37.752
-38.338
-38.902
-39.446
-39.971
-40.48
-40.973
-41.455
-41.929
-42.398
-42.867
-43.337
-43.814
-44.3
-44.798
-45.313
-45.848
-46.404
-46.985
-47.594
-48.233
-48.903
-49.607
-50.346
-51.119
-51.928
-52.772
-53.65
-54.561
-55.502
-56.473
-57.469
-58.489
-59.528
-60.583
-61.649
-62.723
-63.801
-64.877
-65.948
-67.009
-68.057
-69.088
-70.1
-71.09
-72.055
-72.994
-73.906
-74.79
-75.646
-76.472
-77.27
-78.038
-78.778
-79.491
-80.177
-80.838
-81.475
-82.091
-82.687
-83.265
-83.829
-84.379
-84.919
-85.451
-85.977
-86.5
-87.023
-87.547
-88.076
-88.61
-89.152
-89.702
-90.261
-90.828
-91.402
-91.982
-92.566
-93.149
-93.731
-94.307
-94.873
-95.427
-95.964
-96.481
-96.974
-97.44
-97.874
-98.274
-98.635
-98.953
-99.227
-99.453
-99.627
-99.749
-99.815
-99.824
-99.775
-99.666
-99.497
-99.267
-98.976
-98.625
-98.215
-97.748
-97.227
-96.656
-96.038
-95.38
-94.687
-93.964
-93.218
-92.454
-91.678
-90.895
-90.108
-89.322
-88.538
-87.76
-86.99
-86.232
-85.487
-84.757
-84.045
-83.355
-82.688
-82.045
-81.424
-80.822
-80.237
-79.662
-79.092
-78.518
-77.932
-77.324
-76.685
-76.007
-75.281
-74.495
-73.633
-72.675
-71.605
-70.417
-69.104
-67.666
-66.108
-64.443
-62.69
-60.881
-59.045
-57.206
-55.384
-53.587
-51.821
-50.091
-48.401
-46.764
-45.177
-43.62
-42.066
-40.479
-38.816
-37.031
-35.059
-32.812
-30.214
-27.205
-23.747
-19.829
-15.457
-10.661
-5.475
0.06
5.878
11.881
17.958
23.983
29.838
35.421
40.604
45.235
49.176
52.312
54.574
55.933
56.382
55.94
54.624
52.467
49.552
46.006
41.977
37.622
33.031
28.255
23.417
18.602
13.807
8.923
3.669
-2.258
-9.019
-16.665
-25.247
-34.626
-44.423
-54.019
-62.382
-68.384
-71.146
-70.169
-65.24
-56.565
-44.923
-31.609
-18.667
-8.487
-3.362
-5.002
-14.357
-32.089
-57.106
-85.88
-114.144
-137.048
-151.654
-160.161
-164.377
-161.76
-146.158
-104.815
-25.258
94.478
249.792
429.086
612.714
785.191
931.677
1034.393
1086.244
1084.131
1027.65
928.393
793.324
624.54
431.859
224.562
19.36
-156.303
-285.716
-363.81
-394.896
-394.897
-376.609
-345.397
-306.461
-265.975
-230.603
-206.39
-193.892
-185.936
-175.467
-160.16
-141.707
-125.687
-116.166
-112.992
-113.785
-115.398
-115.556
-112.933
-107.167
-98.535
-87.226
-73.834
-59.263
-44.174
-29.506
-16.472
-5.71
2.487
8.022
11.208
12.41
11.923
10.243
7.972
5.486
3.033
0.759
-1.297
-3.005
-4.206
-4.796
-4.734
-4.009
-2.616
-0.544
2.219
5.631
9.604
14.021
18.773
23.79
29.013
34.388
39.831
45.23
50.496
55.563
60.39
64.959
69.253
73.257
76.981
80.455
83.718
86.82
89.796
92.67
95.472
98.235
101.006
103.844
106.794
109.894
113.173
116.655
120.363
124.311
128.503
132.932
137.593
142.486
147.617
152.987
158.588
164.406
170.423
176.607
182.923
189.324
195.755
202.178
208.557
214.871
221.113
227.27
233.33
239.282
245.101
250.762
256.252
261.543
266.618
271.483
276.151
280.667
285.085
289.416
293.653
297.775
301.723
305.444
308.875
311.932
314.557
316.71
318.339
319.417
319.901
319.703
318.728
316.848
313.926
309.893
304.707
298.345
290.835
282.219
272.552
261.934
250.434
238.087
224.945
211.054
196.487
181.386
165.912
150.258
134.631
119.181
104.034
89.307
75.077
61.398
48.321
35.859
24.056
13.001
2.767
-6.584
-15.024
-22.586
-29.335
-35.364
-40.773
-45.637
-50.014
-53.955
-57.493
-60.643
-63.421
-65.827
-67.889
-69.675
-71.243
-72.647
-73.916
-75.042
-75.996
-76.731
-77.203
-77.379
-77.237
-76.766
-75.972
-74.871
-73.483
-71.84
-69.96
-67.841
-65.486
-62.898
-60.094
-57.108
-53.981
-50.766
-47.513
-44.271
-41.083
-37.983
-34.998
-32.148
-29.446
-26.901
-24.523
-22.325
-20.322
-18.527
-16.95
-15.594
-14.462
-13.55
-12.853
-12.366
-12.082
-11.993
-12.096
-12.385
-12.858
-13.511
-14.342
-15.346
-16.515
-17.841
-19.316
-20.929
-22.671
-24.53
-26.497
-28.56
-30.709
-32.935
-35.229
-37.579
-39.976
-42.412
-44.876
-47.361
-49.859
-52.363
-54.865
-57.36
-59.842
-62.306
-64.748
-67.162
-69.545
-71.894
-74.203
-76.471
-78.694
-80.868
-82.993
-85.063
-87.078
-89.035
-90.932
-92.768
-94.541
-96.25
-97.895
-99.475
-100.989
-102.438
-103.821
-105.138
-106.388
-107.571
-108.687
-109.736
-110.717
-111.631
-112.477
-113.254
-113.964
-114.606
-115.181
-115.69
-116.134
-116.513
-116.829
-117.084
-117.279
-117.416
-117.498
-117.527
-117.506
-117.438
-117.325
-117.172
-116.981
-116.756
-116.499
-116.213
-115.902
-115.568
-115.214
-114.845
-114.463
-114.072
-113.676
-113.28
-112.889
-112.506
-112.136
-111.782
-111.448
-111.138
-110.854
-110.6
-110.378
-110.19
-110.039
-109.927
-109.857
-109.83
-109.847
-109.909
-110.018
-110.173
-110.375
-110.624
-110.92
-111.264
-111.657
-112.099
-112.592
-113.135
-113.729
-114.372
-115.062
-115.796
-116.571
-117.38
-118.217
-119.077
-119.955
-120.846
-121.744
-122.644
-123.544
-124.439
-125.327
-126.203
-127.061
-127.893
-128.688
-129.441
-130.14
-130.777
-131.34
-131.817
-132.198
-132.48
-132.656
-132.716
-132.65
-132.437
-132.068
-131.538
-130.849
-130.006
-129.018
-127.896
-126.667
-125.372
-124.052
-122.745
-121.475
-120.242
-119.052
-117.911
-116.825
-115.803
-114.835
-113.884
-112.926
-111.94
-110.9
-109.784
-108.535
-107.058
-105.274
-103.117
-100.55
-97.587
-94.243
-90.54
-86.53
-82.273
-77.872
-73.471
-69.185
-65.092
-61.273
-57.782
-54.704
-52.184
-50.34
-49.272
-49.064
-49.73
-51.254
-53.618
-56.728
-60.46
-64.675
-69.131
-73.614
-78.062
-82.498
-87.068
-91.998
-97.352
-103.118
-109.401
-116.276
-123.623
-131.132
-138.18
-144.056
-148.427
-151.176
-152.105
-151.009
-147.882
-143.099
-137.578
-132.315
-127.855
-124.561
-123.024
-124.165
-128.944
-137.731
-150.035
-165.303
-183.269
-203.507
-224.901
-244.077
-255.955
-256.347
-242.699
-216.027
-179.139
-132.35
-73.317
5
109.097
239.755
392.239
551.655
701.905
829.464
920.674
971.082
975.261
925.508
821.161
659.027
446.805
208.687
-29.058
-232.193
-375.52
-458.554
-489.856
-489.679
-479.081
-460.721
-435.404
-404.029
-365.118
-327.82
-298.502
-275.013
-256.925
-240.457
-223.612
-210.32
-202.111
-199.147
-200.196
-201.736
-201.396
-197.675
-189.941
-178.655
-164.268
-147.497
-129.405
-110.864
-92.97
-77.003
-63.619
-53.078
-45.411
-40.267
-37.258
-36.061
-36.18
-37.021
-38.2
-39.488
-40.772
-42.055
-43.266
-44.234
-44.782
-44.804
-44.234
-43.033
-41.19
-38.677
-35.502
-31.733
-27.475
-22.839
-17.91
-12.729
-7.312
-1.697
4.058
9.866
15.609
21.212
26.634
31.842
36.825
41.579
46.108
50.448
54.661
58.803
62.917
67.032
71.16
75.33
79.578
83.949
88.497
93.261
98.267
103.541
109.099
114.956
121.117
127.577
134.314
141.312
148.557
156.036
163.736
171.641
179.727
187.969
196.338
204.805
213.34
221.909
230.477
239.008
247.465
255.812
264.016
272.037
279.838
287.378
294.617
301.516
308.034
314.135
319.78
324.934
329.566
333.643
337.138
340.027
342.287
343.897
344.841
345.105
344.679
343.556
341.731
339.206
335.984
332.073
327.482
322.226
316.324
309.797
302.669
294.969
286.727
277.978
268.756
259.103
249.058
238.663
227.965
217.007
205.836
194.499
183.043
171.515
159.962
148.43
136.962
125.604
114.397
103.382
92.599
82.084
71.872
61.997
52.488
43.372
34.674
26.416
18.616
11.288
4.446
-1.903
-7.753
-13.101
-17.947
-22.296
-26.154
-29.53
-32.436
-34.886
-36.898
-38.489
-39.68
-40.493
-40.95
-41.076
-40.894
-40.432
-39.713
-38.766
-37.615
-36.287
-34.808
-33.204
-31.499
-29.718
-27.884
-26.018
-24.141
-22.274
-20.434
-18.637
-16.898
-15.231
-13.647
-12.157
-10.768
-9.487
-8.321
-7.27
-6.339
-5.527
-4.834
-4.257
-3.795
-3.444
-3.199
-3.054
-3.006
-3.048
-3.172
-3.374
-3.644
-3.977
-4.363
-4.797
-5.271
-5.776
-6.306
-6.854
-7.413
-7.976
-8.538
-9.093
-9.635
-10.159
-10.661
-11.138
-11.584
-11.998
-12.376
-12.717
-13.02
-13.283
-13.505
-13.686
-13.825
-13.923
-13.979
-13.994
-13.968
-13.9
-13.793
-13.645
-13.458
-13.234
-12.972
-12.675
-12.344
-11.981
-11.588
-11.166
-10.72
-10.25
-9.76
-9.254
-8.735
-8.207
-7.674
-7.14
-6.609
-6.086
-5.575
-5.081
-4.609
-4.161
-3.744
-3.361
-3.016
-2.714
-2.459
-2.256
-2.108
-2.02
-1.997
-2.041
-2.158
-2.35
-2.62
-2.971
-3.406
-3.925
-4.531
-5.224
-6.004
-6.87
-7.823
-8.859
-9.976
-11.171
-12.439
-13.776
-15.177
-16.635
-18.146
-19.702
-21.298
-22.927
-24.585
-26.264
-27.96
-29.666
-31.378
-33.089
-34.793
-36.485
-38.159
-39.81
-41.433
-43.023
-44.576
-46.089
-47.557
-48.979
-50.351
-51.673
-52.942
-54.158
-55.32
-56.429
-57.486
-58.494
-59.455
-60.374
-61.254
-62.1
-62.917
-63.708
-64.477
-65.228
-65.962
-66.68
-67.384
-68.072
-68.744
-69.402
-70.045
-70.674
-71.288
-71.889
-72.477
-73.055
-73.621
-74.171
-74.699
-75.199
-75.666
-76.092
-76.468
-76.784
-77.03
-77.2
-77.291
-77.297
-77.21
-77.017
-76.7
-76.246
-75.656
-74.93
-74.074
-73.095
-72.008
-70.841
-69.639
-68.444
-67.285
-66.172
-65.099
-64.065
-63.074
-62.128
-61.234
-60.373
-59.521
-58.66
-57.778
-56.86
-55.873
-54.751
-53.391
-51.71
-49.665
-47.25
-44.497
-41.436
-38.097
-34.534
-30.822
-27.073
-23.388
-19.835
-16.446
-13.261
-10.347
-7.809
-5.793
-4.408
-3.712
-3.724
-4.439
-5.845
-7.907
-10.542
-13.608
-16.942
-20.441
-24.056
-27.766
-31.6
-35.621
-39.936
-44.725
-50.178
-56.406
-63.451
-71.357
-80
-89.04
-97.959
-105.981
-112.277
-116.173
-117.239
-115.149
-109.888
-101.973
-92.341
-82.476
-74.178
-69.286
-69.31
-75.382
-88.48
-107.822
-130.616
-153.841
-173.707
-188.546
-200.988
-211.419
-216.52
-208.436
-172.723
-99.003
13.52
157.595
318.552
482.367
639.821
783.914
905.132
990.407
1026.508
1002.819
920.391
788.985
620.193
429.149
226.344
23.183
-163.885
-321.721
-436.634
-503.552
-526.903
-511.991
-471.463
-416.323
-357.334
-309.536
-277.792
-262.262
-257.927
-251.915
-239.586
-221.823
-201.444
-185.661
-176.885
-173.194
-172.702
-172.232
-169.506
-163.944
-155.373
-144.122
-130.867
-116.332
-101.165
-86.015
-71.839
-59.619
-49.897
-42.892
-38.484
-36.281
-35.954
-37.176
-39.442
-42.235
-45.216
-48.134
-50.85
-53.276
-55.212
-56.494
-57.054
-56.861
-55.926
-54.257
-51.84
-48.698
-44.913
-40.585
-35.827
-30.721
-25.305
-19.636
-13.789
-7.862
-1.987
3.746
9.293
14.616
19.698
24.53
29.103
33.442
37.605
41.641
45.596
49.507
53.392
57.281
61.217
65.248
69.429
73.805
78.402
83.246
88.359
93.757
99.452
105.443
111.712
118.25
125.045
132.087
139.369
146.874
154.581
162.467
170.508
178.68
186.957
195.312
203.718
212.145
220.565
228.947
237.261
245.47
253.535
261.414
269.065
276.444
283.511
290.223
296.54
302.426
307.847
312.768
317.156
320.973
324.179
326.743
328.639
329.85
330.368
330.196
329.346
327.837
325.693
322.934
319.57
315.602
311.019
305.814
299.975
293.51
286.442
278.795
270.591
261.847
252.58
242.786
232.455
221.566
210.087
198.015
185.371
172.21
158.624
144.721
130.63
116.461
102.3
88.23
74.328
60.671
47.336
34.419
22.025
10.275
-0.69
-10.762
-19.864
-27.969
-35.097
-41.302
-46.675
-51.292
-55.214
-58.494
-61.171
-63.283
-64.87
-65.978
-66.665
-67.008
-67.115
-67.072
-66.952
-66.796
-66.607
-66.364
-66.02
-65.536
-64.885
-64.053
-63.041
-61.861
-60.53
-59.069
-57.503
-55.839
-54.071
-52.196
-50.211
-48.129
-45.98
-43.801
-41.645
-39.559
-37.585
-35.761
-34.111
-32.652
-31.395
-30.341
-29.488
-28.834
-28.384
-28.14
-28.108
-28.287
-28.674
-29.261
-30.036
-30.988
-32.102
-33.364
-34.76
-36.279
-37.911
-39.645
-41.477
-43.396
-45.395
-47.464
-49.592
-51.766
-53.976
-56.21
-58.456
-60.701
-62.935
-65.149
-67.334
-69.48
-71.582
-73.63
-75.62
-77.545
-79.4
-81.18
-82.881
-84.5
-86.035
-87.482
-88.841
-90.11
-91.291
-92.384
-93.39
-94.311
-95.149
-95.906
-96.585
-97.189
-97.723
-98.189
-98.592
-98.937
-99.23
-99.477
-99.683
-99.856
-100.002
-100.128
-100.24
-100.344
-100.447
-100.555
-100.673
-100.807
-100.963
-101.146
-101.36
-101.612
-101.904
-102.242
-102.628
-103.067
-103.56
-104.11
-104.718
-105.385
-106.112
-106.898
-107.744
-108.647
-109.606
-110.619
-111.682
-112.792
-113.945
-115.135
-116.355
-117.601
-118.865
-120.14
-121.42
-122.695
-123.961
-125.209
-126.432
-127.624
-128.777
-129.886
-130.942
-131.939
-132.869
-133.728
-134.506
-135.2
-135.803
-136.311
-136.719
-137.024
-137.223
-137.312
-137.289
-137.153
-136.902
-136.535
-136.053
-135.457
-134.748
-133.93
-133.006
-131.98
-130.857
-129.642
-128.339
-126.954
-125.489
-123.949
-122.337
-120.654
-118.903
-117.086
-115.205
-113.265
-111.267
-109.216
-107.116
-104.971
-102.785
-100.56
-98.297
-95.996
-93.652
-91.262
-88.823
-86.329
-83.776
-81.162
-78.484
-75.741
-72.934
-70.06
-67.116
-64.093
-60.978
-57.762
-54.441
-51.019
-47.505
-43.918
-40.286
-36.641
-33.016
-29.438
-25.924
-22.475
-19.082
-15.731
-12.405
-9.102
-5.836
-2.617
0.547
3.654
6.711
9.743
12.794
15.918
19.182
22.635
26.297
30.151
34.146
38.204
42.23
46.157
49.936
53.522
56.886
59.999
62.834
65.364
67.539
69.286
70.509
71.134
71.128
70.526
69.407
67.888
66.102
64.137
62.081
60.033
58.052
56.186
54.422
52.681
50.955
49.309
47.741
46.195
44.458
42.121
38.953
34.88
29.737
23.469
16.218
8.246
0.37
-6.127
-10.391
-11.896
-10.21
-5.437
1.954
11.247
20.79
28.078
30.966
27.725
16.943
-0.514
-21.956
-44.95
-66.925
-88.067
-110.352
-130.865
-141.322
-127.256
-74.755
18.542
144.421
285.76
427.602
566.738
704.651
842.603
971.93
1071.015
1116.557
1092.207
996.435
840.868
644.029
426.713
207.66
6.314
-158.947
-276.039
-342.533
-367.581
-367.449
-357.789
-346.097
-332.353
-313.483
-286.319
-252.441
-216.585
-183.028
-155.435
-135.553
-123.198
-117.228
-115.992
-117.828
-121.403
-125.906
-130.593
-134.231
-135.635
-134.369
-130.55
-124.729
-117.643
-109.761
-101.535
-93.836
-87.617
-83.372
-81.194
-80.83
-81.78
-83.679
-86.237
-89.004
-91.505
-93.431
-94.618
-95.057
-94.84
-94.004
-92.534
-90.423
-87.691
-84.395
-80.612
-76.438
-71.988
-67.373
-62.709
-58.113
-53.664
-49.412
-45.384
-41.573
-37.961
-34.537
-31.298
-28.253
-25.414
-22.773
-20.311
-17.99
-15.754
-13.551
-11.331
-9.035
-6.614
-4.032
-1.257
1.725
4.917
8.331
11.975
15.858
19.998
24.408
29.099
34.09
39.384
44.977
50.865
57.03
63.446
70.08
76.885
83.811
90.824
97.893
104.999
112.137
119.294
126.459
133.626
140.767
147.859
154.887
161.821
168.639
175.345
181.948
188.49
195.026
201.573
208.126
214.662
221.115
227.416
233.482
239.198
244.477
249.244
253.426
256.979
259.86
261.994
263.306
263.69
263.02
261.22
258.249
254.083
248.76
242.337
234.904
226.606
217.569
207.895
197.682
186.999
175.908
164.503
152.878
141.141
129.43
117.851
106.488
95.425
84.701
74.33
64.306
54.575
45.09
35.836
26.803
18.002
9.455
1.167
-6.852
-14.592
-22.059
-29.259
-36.189
-42.859
-49.257
-55.362
-61.145
-66.559
-71.559
-76.12
-80.225
-83.865
-87.044
-89.765
-92.035
-93.874
-95.298
-96.317
-96.945
-97.192
-97.072
-96.604
-95.812
-94.72
-93.358
-91.75
-89.921
-87.895
-85.695
-83.343
-80.857
-78.254
-75.552
-72.77
-69.926
-67.041
-64.135
-61.226
-58.332
-55.473
-52.664
-49.92
-47.257
-44.686
-42.218
-39.864
-37.634
-35.536
-33.576
-31.762
-30.099
-28.591
-27.243
-26.056
-25.032
-24.173
-23.477
-22.945
-22.574
-22.363
-22.307
-22.404
-22.648
-23.036
-23.561
-24.217
-24.998
-25.896
-26.903
-28.012
-29.215
-30.501
-31.863
-33.292
-34.78
-36.316
-37.893
-39.503
-41.137
-42.787
-44.445
-46.104
-47.756
-49.394
-51.012
-52.602
-54.16
-55.678
-57.152
-58.575
-59.944
-61.254
-62.501
-63.68
-64.79
-65.827
-66.789
-67.675
-68.483
-69.212
-69.861
-70.431
-70.921
-71.332
-71.663
-71.917
-72.095
-72.197
-72.227
-72.187
-72.079
-71.906
-71.67
-71.375
-71.022
-70.615
-70.158
-69.653
-69.103
-68.512
-67.885
-67.225
-66.536
-65.821
-65.085
-64.33
-63.562
-62.782
-61.994
-61.201
-60.407
-59.616
-58.831
-58.055
-57.293
-56.548
-55.824
-55.124
-54.452
-53.808
-53.197
-52.62
-52.078
-51.574
-51.11
-50.687
-50.308
-49.974
-49.686
-49.445
-49.253
-49.108
-49.012
-48.962
-48.959
-49.002
-49.09
-49.221
-49.397
-49.615
-49.876
-50.176
-50.514
-50.887
-51.291
-51.722
-52.175
-52.644
-53.123
-53.605
-54.086
-54.561
-55.024
-55.471
-55.9
-56.307
-56.689
-57.04
-57.357
-57.632
-57.857
-58.023
-58.123
-58.147
-58.089
-57.945
-57.708
-57.376
-56.951
-56.43
-55.811
-55.088
-54.25
-53.292
-52.213
-51.02
-49.726
-48.355
-46.936
-45.506
-44.103
-42.758
-41.494
-40.322
-39.232
-38.211
-37.244
-36.325
-35.467
-34.681
-33.97
-33.334
-32.765
-32.233
-31.696
-31.094
-30.348
-29.398
-28.209
-26.78
-25.166
-23.438
-21.687
-19.99
-18.396
-16.949
-15.679
-14.603
-13.728
-13.084
-12.723
-12.74
-13.259
-14.365
-16.106
-18.463
-21.342
-24.635
-28.16
-31.707
-35.174
-38.558
-41.968
-45.674
-49.871
-54.605
-59.994
-66.083
-72.659
-79.362
-85.51
-90.215
-93.079
-94.128
-93.406
-91.153
-87.729
-83.567
-79.708
-77.408
-77.17
-78.907
-82.349
-87.11
-93.347
-101.412
-110.913
-121.43
-133
-146.052
-161.583
-178.72
-193.589
-202.789
-203.477
-196.683
-188.072
-177.85
-160.993
-126.926
-60.79
42.272
176.327
327.983
479.058
617.632
737.834
834.386
902.066
930.022
905.265
822.29
680.767
491.63
278.455
65.081
-122.256
-262.865
-354.52
-404.792
-428.174
-441.395
-448.82
-445.534
-428.767
-398.916
-362.814
-333.86
-317.014
-307.708
-300.062
-285.791
-262.977
-237.661
-213.732
-193.624
-177.708
-163.608
-150.82
-140.017
-131.263
-124.227
-117.955
-111.717
-105.463
-99.209
-92.854
-86.228
-79.291
-72.6
-67.03
-63.025
-60.588
-59.468
-59.244
-59.621
-60.428
-61.313
-61.797
-61.545
-60.325
-58.068
-54.867
-50.78
-45.831
-40.085
-33.625
-26.556
-19.037
-11.219
-3.246
4.733
12.619
20.335
27.809
34.99
41.827
48.298
54.417
60.205
65.678
70.85
75.734
80.353
84.764
89.027
93.207
97.374
101.574
105.849
110.238
114.77
119.468
124.349
129.414
134.661
140.094
145.719
151.542
157.566
163.788
170.199
176.791
183.551
190.465
197.519
204.693
211.97
219.331
226.755
234.223
241.713
249.199
256.653
264.044
271.34
278.506
285.507
292.308
298.871
305.161
311.142
316.781
322.044
326.901
331.32
335.274
338.734
341.676
344.078
345.917
347.175
347.838
347.89
347.321
346.124
344.294
341.829
338.731
335.005
330.656
325.696
320.139
314.001
307.301
300.062
292.308
284.068
275.372
266.251
256.74
246.875
236.692
226.23
215.526
204.621
193.552
182.359
171.08
159.755
148.42
137.113
125.869
114.724
103.712
92.864
82.212
71.786
61.613
51.719
42.128
32.863
23.942
15.385
7.205
-0.583
-7.97
-14.946
-21.505
-27.645
-33.362
-38.658
-43.536
-47.999
-52.055
-55.711
-58.977
-61.863
-64.381
-66.543
-68.364
-69.857
-71.037
-71.918
-72.516
-72.846
-72.925
-72.768
-72.391
-71.81
-71.041
-70.101
-69.003
-67.765
-66.4
-64.923
-63.348
-61.689
-59.959
-58.169
-56.333
-54.459
-52.56
-50.645
-48.721
-46.799
-44.885
-42.987
-41.11
-39.261
-37.447
-35.671
-33.941
-32.26
-30.634
-29.068
-27.566
-26.134
-24.775
-23.494
-22.295
-21.181
-20.157
-19.224
-18.387
-17.647
-17.008
-16.47
-16.036
-15.707
-15.483
-15.366
-15.354
-15.449
-15.649
-15.953
-16.362
-16.873
-17.484
-18.195
-19.002
-19.904
-20.898
-21.979
-23.145
-24.391
-25.712
-27.104
-28.562
-30.079
-31.649
-33.267
-34.927
-36.621
-38.345
-40.091
-41.854
-43.627
-45.406
-47.184
-48.957
-50.72
-52.47
-54.201
-55.912
-57.598
-59.259
-60.891
-62.494
-64.066
-65.606
-67.113
-68.587
-70.028
-71.437
-72.813
-74.159
-75.475
-76.763
-78.026
-79.266
-80.486
-81.689
-82.877
-84.054
-85.222
-86.385
-87.545
-88.705
-89.867
-91.034
-92.206
-93.387
-94.576
-95.774
-96.98
-98.195
-99.415
-100.641
-101.87
-103.098
-104.323
-105.542
-106.752
-107.951
-109.134
-110.298
-111.44
-112.556
-113.643
-114.695
-115.71
-116.682
-117.605
-118.477
-119.292
-120.047
-120.737
-121.36
-121.911
-122.387
-122.787
-123.106
-123.344
-123.497
-123.564
-123.545
-123.439
-123.246
-122.969
-122.608
-122.166
-121.644
-121.046
-120.372
-119.623
-118.802
-117.908
-116.942
-115.903
-114.792
-113.608
-112.351
-111.023
-109.624
-108.158
-106.625
-105.028
-103.367
-101.644
-99.858
-98.007
-96.086
-94.09
-92.014
-89.856
-87.613
-85.284
-82.866
-80.358
-77.762
-75.079
-72.307
-69.44
-66.467
-63.38
-60.184
-56.891
-53.519
-50.097
-46.648
-43.2
-39.79
-36.444
-33.178
-29.993
-26.872
-23.794
-20.754
-17.761
-14.839
-12.012
-9.28
-6.636
-4.072
-1.557
0.936
3.448
6.048
8.779
11.639
14.592
17.553
20.426
23.146
25.669
27.971
30.043
31.862
33.42
34.722
35.747
36.466
36.825
36.73
36.126
35.034
33.519
31.705
29.739
27.726
25.755
23.885
22.125
20.456
18.81
17.11
15.296
13.316
11.144
8.783
6.206
3.362
0.147
-3.67
-8.307
-13.863
-20.317
-27.423
-34.786
-42.007
-48.548
-53.644
-56.639
-57.209
-55.428
-51.958
-47.953
-44.64
-43.282
-45.637
-52.297
-61.739
-72.133
-80.904
-87.346
-95.178
-105.935
-116.176
-116.621
-90.78
-26.21
78.502
215.507
369.08
525.387
677.75
820.986
946.978
1041.536
1085.014
1062.15
969.927
816.482
620.777
405.963
192.346
-0.46
-158.259
-274.557
-347.978
-385.079
-395.686
-386.849
-365.795
-338.593
-309.277
-284.067
-264.805
-247.481
-229.13
-205.778
-177.681
-151.296
-130.44
-116.947
-110.409
-107.441
-106.546
-107.597
-109.982
-112.799
-114.672
-114.538
-112.308
-108.397
-103.113
-96.676
-89.447
-82.26
-76.194
-71.86
-69.328
-68.289
-68.299
-69.018
-70.197
-71.456
-72.313
-72.472
-71.788
-70.247
-67.947
-64.913
-61.135
-56.648
-51.529
-45.877
-39.827
-33.525
-27.092
-20.656
-14.32
-8.147
-2.189
3.531
9.007
14.245
19.251
24.026
28.563
32.851
36.897
40.72
44.364
47.892
51.363
54.836
58.364
61.983
65.731
69.632
73.7
77.94
82.36
86.969
91.784
96.824
102.104
107.635
113.424
119.473
125.781
132.344
139.154
146.202
153.473
160.956
168.636
176.5
184.53
192.708
201.013
209.418
217.898
226.425
234.968
243.491
251.958
260.328
268.561
276.613
284.442
292.004
299.257
306.162
312.679
318.772
324.408
329.55
334.165
338.213
341.654
344.454
346.586
348.029
348.775
348.823
348.184
346.874
344.914
342.32
339.1
335.253
330.765
325.625
319.818
313.35
306.24
298.51
290.18
281.266
271.779
261.715
251.059
239.786
227.862
215.278
202.05
188.225
173.891
159.152
144.131
128.935
113.647
98.347
83.106
68.001
53.107
38.517
24.336
10.683
-2.302
-14.508
-25.857
-36.316
-45.903
-54.667
-62.696
-70.06
-76.817
-83.014
-88.683
-93.859
-98.573
-102.867
-106.786
-110.403
-113.812
-117.092
-120.308
-123.49
-126.632
-129.704
-132.647
-135.413
-137.964
-140.275
-142.338
-144.154
-145.73
-147.078
-148.212
-149.134
-149.829
-150.286
-150.495
-150.463
-150.213
-149.778
-149.203
-148.533
-147.807
-147.056
-146.304
-145.565
-144.847
-144.154
-143.48
-142.825
-142.196
-141.596
-141.035
-140.516
-140.038
-139.6
-139.195
-138.818
-138.462
-138.119
-137.783
-137.453
-137.124
-136.799
-136.48
-136.167
-135.863
-135.568
-135.28
-135
-134.725
-134.456
-134.19
-133.927
-133.668
-133.413
-133.165
-132.927
-132.702
-132.494
-132.306
-132.142
-132.007
-131.905
-131.842
-131.822
-131.849
-131.93
-132.069
-132.271
-132.542
-132.886
-133.309
-133.814
-134.406
-135.087
-135.86
-136.727
-137.689
-138.747
-139.902
-141.153
-142.5
-143.943
-145.479
-147.108
-148.825
-150.629
-152.514
-154.476
-156.509
-158.608
-160.764
-162.972
-165.223
-167.509
-169.821
-172.151
-174.489
-176.825
-179.149
-181.451
-183.72
-185.946
-188.118
-190.227
-192.261
-194.213
-196.072
-197.829
-199.478
-201.009
-202.417
-203.694
-204.834
-205.834
-206.686
-207.389
-207.936
-208.327
-208.558
-208.627
-208.534
-208.278
-207.86
-207.28
-206.54
-205.643
-204.592
-203.391
-202.044
-200.556
-198.933
-197.182
-195.309
-193.322
-191.23
-189.039
-186.758
-184.397
-181.963
-179.464
-176.908
-174.303
-171.656
-168.974
-166.264
-163.533
-160.785
-158.029
-155.269
-152.511
-149.76
-147.021
-144.299
-141.596
-138.917
-136.265
-133.639
-131.043
-128.477
-125.941
-123.435
-120.956
-118.503
-116.073
-113.662
-111.264
-108.875
-106.488
-104.097
-101.694
-99.272
-96.825
-94.346
-91.828
-89.264
-86.649
-83.977
-81.242
-78.439
-75.563
-72.609
-69.573
-66.452
-63.244
-59.945
-56.555
-53.074
-49.505
-45.851
-42.117
-38.309
-34.434
-30.502
-26.521
-22.503
-18.457
-14.393
-10.322
-6.256
-2.209
1.801
5.76
9.652
13.461
17.172
20.77
24.244
27.587
30.794
33.859
36.773
39.513
42.059
44.396
46.509
48.381
50.009
51.389
52.53
53.461
54.212
54.814
55.294
55.665
55.947
56.172
56.38
56.628
56.972
57.453
58.118
59.014
60.145
61.475
62.927
64.384
65.75
66.947
67.874
68.407
68.454
67.975
66.925
65.182
62.528
58.72
53.629
47.414
40.305
32.382
24.065
16.156
9.431
4.917
2.418
-0.092
-3.015
-5.873
-7.003
-2.611
5.867
13.72
16.108
6.696
-14.705
-44.828
-79.411
-108.431
-121.004
-103.108
-42.158
61.196
198.482
352.237
504.157
650.359
790.315
923.898
1046.28
1136.17
1170.084
1130.87
1012.299
827.953
603.132
368.434
153.429
-22.414
-150.073
-232.48
-279.589
-300.674
-303.396
-291.126
-266.698
-237.347
-210.872
-193.151
-184.464
-177.654
-165.507
-145.124
-119.186
-95.081
-77.802
-68.029
-63.936
-62.073
-60.553
-59.065
-56.835
-52.967
-46.899
-38.388
-27.798
-15.882
-3.2
9.743
22.051
32.689
41.038
46.849
50.198
51.442
50.889
48.827
45.738
42.149
38.426
34.831
31.538
28.665
26.373
24.799
23.987
23.932
24.622
26.048
28.207
31.066
34.542
38.532
42.938
47.687
52.718
57.956
63.298
68.614
73.793
78.764
83.485
87.929
92.077
95.915
99.451
102.722
105.774
108.655
111.404
114.05
116.627
119.175
121.75
124.417
127.237
130.257
133.514
137.029
140.819
144.89
149.235
153.832
158.646
163.635
168.765
174.01
179.356
184.794
190.301
195.845
201.388
206.892
212.338
217.726
223.055
228.331
233.578
238.836
244.18
249.707
255.477
261.515
267.815
274.34
281.07
287.995
295.096
302.34
309.662
316.977
324.213
331.289
338.082
344.429
350.099
354.842
358.47
360.847
361.874
361.486
359.605
356.145
351.049
344.291
335.856
325.75
313.962
300.49
285.408
268.863
251.074
232.294
212.715
192.503
171.82
150.819
129.671
108.568
87.673
67.146
47.182
27.963
9.689
-7.438
-23.3
-37.844
-51.066
-62.995
-73.635
-82.99
-91.091
-97.984
-103.725
-108.4
-112.088
-114.891
-116.972
-118.488
-119.594
-120.46
-121.192
-121.868
-122.546
-123.263
-124.046
-124.925
-125.904
-126.972
-128.13
-129.353
-130.616
-131.875
-133.042
-134.043
-134.823
-135.319
-135.505
-135.363
-134.882
-134.066
-132.942
-131.529
-129.858
-127.964
-125.87
-123.609
-121.22
-118.749
-116.255
-113.784
-111.374
-109.055
-106.851
-104.779
-102.854
-101.083
-99.456
-97.972
-96.627
-95.418
-94.344
-93.404
-92.59
-91.895
-91.311
-90.83
-90.448
-90.16
-89.961
-89.847
-89.816
-89.866
-89.998
-90.21
-90.499
-90.862
-91.294
-91.791
-92.349
-92.965
-93.632
-94.347
-95.106
-95.906
-96.745
-97.621
-98.53
-99.47
-100.438
-101.432
-102.45
-103.489
-104.547
-105.621
-106.708
-107.805
-108.908
-110.016
-111.123
-112.225
-113.319
-114.401
-115.466
-116.509
-117.527
-118.514
-119.465
-120.377
-121.243
-122.061
-122.824
-123.528
-124.169
-124.742
-125.243
-125.667
-126.01
-126.268
-126.437
-126.515
-126.497
-126.381
-126.166
-125.85
-125.432
-124.912
-124.29
-123.567
-122.745
-121.824
-120.809
-119.702
-118.505
-117.225
-115.866
-114.432
-112.931
-111.367
-109.747
-108.079
-106.37
-104.627
-102.858
-101.072
-99.277
-97.482
-95.698
-93.932
-92.195
-90.495
-88.841
-87.243
-85.71
-84.247
-82.863
-81.565
-80.359
-79.252
-78.249
-77.354
-76.572
-75.906
-75.357
-74.929
-74.622
-74.435
-74.367
-74.416
-74.579
-74.855
-75.238
-75.724
-76.306
-76.978
-77.733
-78.562
-79.455
-80.398
-81.381
-82.39
-83.412
-84.432
-85.433
-86.401
-87.32
-88.178
-88.959
-89.649
-90.232
-90.693
-91.021
-91.2
-91.216
-91.052
-90.691
-90.122
-89.331
-88.312
-87.053
-85.546
-83.783
-81.759
-79.476
-76.933
-74.127
-71.048
-67.689
-64.053
-60.161
-56.039
-51.711
-47.198
-42.525
-37.725
-32.84
-27.903
-22.932
-17.924
-12.873
-7.791
-2.707
2.333
7.289
12.141
16.891
21.544
26.089
30.515
34.829
39.064
43.268
47.452
51.576
55.551
59.297
62.77
65.945
68.828
71.41
73.666
75.581
77.151
78.394
79.33
79.939
80.158
79.909
79.154
77.94
76.394
74.627
72.733
70.794
68.809
66.799
64.82
62.791
60.582
58
54.674
50.3
44.86
38.374
30.913
22.752
14.006
4.933
-3.651
-10.906
-16.292
-19.408
-20.323
-19.586
-17.313
-13.691
-9.8
-7.152
-7.275
-11.52
-20.459
-33.737
-51.458
-74.117
-99.691
-123.561
-141.524
-149.21
-146.658
-139.443
-127.776
-107.224
-68.811
0.609
104.981
238.812
391.29
549.112
702.507
841.789
955.244
1027.699
1042.883
994.941
887.909
733.052
548.242
348.377
147
-37.898
-190.027
-298.886
-362.161
-390.721
-401.45
-405.039
-405.368
-399.41
-381.272
-351.117
-313.191
-272.976
-236.125
-204.983
-180.238
-162.286
-150.15
-142.531
-138.083
-135.214
-132.946
-130.625
-127.083
-121.174
-112.491
-101.206
-88.026
-73.931
-59.607
-45.602
-32.763
-22.014
-13.88
-8.529
-5.803
-5.26
-6.509
-9.2
-12.842
-16.9
-20.981
-24.773
-28.035
-30.636
-32.468
-33.437
-33.538
-32.793
-31.212
-28.823
-25.67
-21.816
-17.365
-12.424
-7.084
-1.436
4.427
10.392
16.316
22.082
27.614
32.865
37.813
42.441
46.732
50.693
54.363
57.79
61.024
64.107
67.07
69.955
72.813
75.699
78.674
81.786
85.068
88.553
92.274
96.251
100.499
105.017
109.789
114.798
120.03
125.458
131.048
136.761
142.555
148.402
154.296
160.225
166.175
172.133
178.075
184
189.932
195.883
201.859
207.873
213.926
220.052
226.321
232.779
239.457
246.352
253.416
260.603
267.872
275.158
282.385
289.442
296.175
302.465
308.219
313.34
317.739
321.293
323.831
325.224
325.379
324.24
321.803
318.07
313.039
306.765
299.336
290.879
281.573
271.557
260.931
249.807
238.288
226.508
214.639
202.819
191.147
179.71
168.568
157.779
147.407
137.472
127.954
118.813
109.981
101.419
93.122
85.081
77.293
69.745
62.406
55.268
48.348
41.655
35.201
28.996
23.038
17.349
11.967
6.935
2.299
-1.908
-5.676
-8.996
-11.865
-14.282
-16.253
-17.793
-18.931
-19.691
-20.094
-20.163
-19.917
-19.383
-18.596
-17.588
-16.395
-15.048
-13.579
-12.016
-10.392
-8.734
-7.067
-5.415
-3.798
-2.237
-0.757
0.623
1.88
2.994
3.947
4.721
5.299
5.666
5.811
5.724
5.399
4.829
4.012
2.945
1.63
0.068
-1.737
-3.781
-6.057
-8.557
-11.274
-14.195
-17.311
-20.609
-24.076
-27.699
-31.463
-35.355
-39.36
-43.464
-47.653
-51.911
-56.224
-60.577
-64.957
-69.349
-73.738
-78.111
-82.454
-86.756
-91.004
-95.188
-99.298
-103.327
-107.265
-111.107
-114.848
-118.481
-122.004
-125.413
-128.705
-131.879
-134.934
-137.87
-140.688
-143.387
-145.971
-148.441
-150.799
-153.047
-155.189
-157.226
-159.162
-160.999
-162.739
-164.387
-165.943
-167.412
-168.796
-170.097
-171.317
-172.459
-173.525
-174.516
-175.431
-176.273
-177.041
-177.735
-178.354
-178.896
-179.362
-179.749
-180.055
-180.28
-180.421
-180.476
-180.443
-180.321
-180.106
-179.798
-179.394
-178.893
-178.293
-177.595
-176.798
-175.903
-174.909
-173.818
-172.63
-171.348
-169.973
-168.508
-166.955
-165.316
-163.596
-161.799
-159.929
-157.992
-155.994
-153.94
-151.839
-149.698
-147.523
-145.323
-143.104
-140.875
-138.642
-136.415
-134.199
-132.002
-129.832
-127.697
-125.603
-123.558
-121.568
-119.638
-117.773
-115.979
-114.259
-112.616
-111.054
-109.574
-108.181
-106.874
-105.657
-104.531
-103.494
-102.547
-101.687
-100.911
-100.214
-99.592
-99.037
-98.542
-98.098
-97.7
-97.338
-97.007
-96.697
-96.404
-96.12
-95.842
-95.561
-95.267
-94.952
-94.603
-94.21
-93.761
-93.244
-92.646
-91.959
-91.172
-90.281
-89.284
-88.174
-86.946
-85.59
-84.091
-82.445
-80.653
-78.717
-76.648
-74.465
-72.191
-69.867
-67.542
-65.245
-63.002
-60.826
-58.711
-56.66
-54.671
-52.733
-50.855
-49.042
-47.285
-45.591
-43.956
-42.354
-40.752
-39.081
-37.252
-35.212
-32.929
-30.392
-27.638
-24.708
-21.654
-18.57
-15.523
-12.569
-9.774
-7.163
-4.753
-2.594
-0.725
0.767
1.752
2.147
1.874
0.893
-0.749
-2.995
-5.749
-8.839
-12.146
-15.529
-18.809
-21.987
-25.176
-28.534
-32.374
-36.874
-42.025
-47.955
-54.739
-62.104
-69.635
-76.616
-82.05
-85.394
-86.336
-84.362
-79.302
-71.477
-61.521
-50.735
-40.702
-32.396
-26.812
-25.287
-28.619
-37.298
-51.365
-69.93
-92.21
-116.61
-139.743
-158.201
-168.54
-170.917
-169.499
-164.459
-152.998
-125.28
-66
28.687
155.265
302.128
450.665
593.131
725.464
843.31
941.96
1007.576
1025.473
986.164
887.871
737.904
548.787
337.244
122.288
-74.344
-232.153
-338.543
-392.82
-407.595
-399.487
-381.573
-358.409
-325.324
-280.22
-226.647
-172.964
-131.797
-108.097
-98.752
-98.714
-99.921
-99.287
-99.533
-101.299
-105.392
-110.914
-113.678
-111.945
-105.847
-95.691
-82.957
-69.013
-54.369
-39.929
-27.019
-16.259
-7.883
-1.984
1.826
3.98
4.764
4.719
4.539
4.609
5.152
6.282
7.914
10.03
12.653
15.715
19.146
22.914
27.005
31.466
36.347
41.61
47.168
52.891
58.612
64.224
69.657
74.841
79.744
84.343
88.631
92.638
96.401
99.937
103.25
106.325
109.147
111.732
114.111
116.329
118.452
120.531
122.611
124.746
126.974
129.325
131.829
134.495
137.326
140.329
143.513
146.892
150.486
154.311
158.379
162.696
167.254
172.044
177.056
182.262
187.632
193.122
198.675
204.249
209.819
215.364
220.875
226.341
231.741
237.063
242.29
247.408
252.409
257.276
261.984
266.536
270.948
275.258
279.538
283.818
288.091
292.346
296.539
300.616
304.529
308.202
311.547
314.508
317.022
319.034
320.509
321.367
321.507
320.812
319.12
316.318
312.345
307.148
300.714
293.08
284.273
274.364
263.453
251.574
238.78
225.144
210.72
195.623
180.003
164.021
147.889
131.822
115.981
100.525
85.577
71.196
57.458
44.415
32.096
20.597
9.995
0.326
-8.364
-16.07
-22.831
-28.694
-33.755
-38.161
-42.02
-45.424
-48.45
-51.12
-53.475
-55.562
-57.415
-59.107
-60.702
-62.232
-63.742
-65.263
-66.795
-68.333
-69.839
-71.224
-72.431
-73.424
-74.179
-74.703
-74.997
-75.054
-74.873
-74.456
-73.802
-72.922
-71.822
-70.505
-68.988
-67.297
-65.473
-63.58
-61.666
-59.764
-57.904
-56.102
-54.373
-52.736
-51.2
-49.765
-48.435
-47.212
-46.102
-45.113
-44.247
-43.501
-42.869
-42.34
-41.905
-41.558
-41.293
-41.104
-40.985
-40.933
-40.944
-41.019
-41.156
-41.351
-41.599
-41.892
-42.224
-42.59
-42.983
-43.397
-43.825
-44.261
-44.702
-45.144
-45.581
-46.011
-46.43
-46.834
-47.221
-47.59
-47.939
-48.266
-48.571
-48.853
-49.112
-49.349
-49.565
-49.759
-49.933
-50.087
-50.223
-50.343
-50.447
-50.537
-50.615
-50.683
-50.743
-50.798
-50.851
-50.903
-50.958
-51.019
-51.088
-51.167
-51.259
-51.364
-51.486
-51.624
-51.78
-51.955
-52.149
-52.363
-52.597
-52.852
-53.126
-53.421
-53.736
-54.07
-54.425
-54.798
-55.192
-55.604
-56.036
-56.486
-56.955
-57.442
-57.947
-58.469
-59.007
-59.562
-60.132
-60.717
-61.317
-61.932
-62.561
-63.205
-63.865
-64.539
-65.231
-65.939
-66.665
-67.41
-68.176
-68.965
-69.777
-70.615
-71.48
-72.373
-73.296
-74.249
-75.235
-76.253
-77.303
-78.386
-79.502
-80.651
-81.832
-83.046
-84.291
-85.567
-86.874
-88.209
-89.572
-90.961
-92.374
-93.808
-95.263
-96.735
-98.221
-99.719
-101.226
-102.739
-104.253
-105.765
-107.27
-108.764
-110.243
-111.7
-113.132
-114.532
-115.897
-117.221
-118.501
-119.73
-120.906
-122.023
-123.077
-124.064
-124.979
-125.819
-126.578
-127.251
-127.836
-128.327
-128.72
-129.012
-129.198
-129.275
-129.238
-129.083
-128.806
-128.402
-127.867
-127.198
-126.39
-125.439
-124.343
-123.1
-121.708
-120.165
-118.47
-116.624
-114.624
-112.472
-110.167
-107.711
-105.104
-102.351
-99.454
-96.419
-93.252
-89.961
-86.555
-83.047
-79.446
-75.765
-72.017
-68.217
-64.383
-60.533
-56.686
-52.858
-49.07
-45.34
-41.691
-38.143
-34.716
-31.424
-28.282
-25.306
-22.514
-19.922
-17.543
-15.381
-13.44
-11.723
-10.242
-9.008
-8.031
-7.312
-6.858
-6.667
-6.739
-7.074
-7.652
-8.45
-9.437
-10.57
-11.826
-13.191
-14.655
-16.218
-17.863
-19.542
-21.213
-22.819
-24.299
-25.663
-26.905
-27.995
-29.03
-30.145
-31.541
-33.612
-36.674
-40.782
-45.973
-52.205
-59.187
-66.768
-74.629
-81.905
-87.869
-92.127
-94.357
-94.695
-93.643
-91.182
-87.529
-83.829
-81.183
-80.63
-83.409
-89.99
-100.317
-115.425
-134.845
-155.152
-173.336
-186.158
-192.867
-198.781
-206.857
-213.435
-209.47
-178.451
-106.321
8.439
159.948
335.123
515.967
689.529
841.06
952.408
1011.413
1009.548
948.124
841.331
703.723
545.523
372.897
189.52
2.764
-169.56
-305.936
-394.819
-434.018
-435.208
-421.239
-404.96
-392.574
-385.334
-373.578
-354.107
-328.242
-295.764
-263.026
-234.183
-210.027
-192.404
-179.7
-169.649
-161.59
-154.883
-149.41
-145.066
-140.712
-135.03
-127.513
-118.303
-107.93
-96.888
-85.522
-74.233
-63.8
-55.232
-49.106
-45.526
-44.266
-44.913
-47.088
-50.431
-54.471
-58.611
-62.379
-65.48
-67.732
-69.103
-69.586
-69.152
-67.81
-65.609
-62.599
-58.848
-54.455
-49.501
-44.081
-38.322
-32.33
-26.233
-20.174
-14.26
-8.578
-3.186
1.894
6.653
11.079
15.178
18.973
22.496
25.796
28.919
31.902
34.793
37.644
40.515
43.475
46.58
49.869
53.375
57.12
61.124
65.404
69.972
74.826
79.965
85.39
91.1
97.099
103.385
109.948
116.777
123.856
131.169
138.7
146.43
154.338
162.4
170.59
178.883
187.253
195.67
204.1
212.508
220.856
229.105
237.217
245.153
252.87
260.33
267.492
274.32
280.777
286.827
292.437
297.574
302.207
306.309
309.853
312.816
315.177
316.917
318.021
318.479
318.282
317.424
315.906
313.728
310.897
307.423
303.318
298.601
293.289
287.408
280.982
274.041
266.618
258.746
250.462
241.803
232.812
223.527
213.993
204.251
194.345
184.319
174.216
164.079
153.95
143.873
133.887
124.033
114.35
104.873
95.639
86.681
78.029
69.711
61.754
54.18
47.009
40.259
33.943
28.074
22.659
17.704
13.211
9.181
5.609
2.491
-0.183
-2.422
-4.24
-5.651
-6.673
-7.322
-7.62
-7.587
-7.246
-6.619
-5.732
-4.607
-3.272
-1.751
-0.07
1.745
3.668
5.676
7.742
9.844
11.959
14.064
16.138
18.162
20.118
21.988
23.756
25.408
26.931
28.314
29.547
30.619
31.526
32.259
32.815
33.189
33.38
33.387
33.208
32.845
32.299
31.573
30.671
29.597
28.357
26.955
25.399
23.696
21.853
19.878
17.779
15.565
13.245
10.827
8.321
5.736
3.08
0.364
-2.405
-5.217
-8.063
-10.935
-13.824
-16.721
-19.619
-22.507
-25.379
-28.227
-31.041
-33.815
-36.54
-39.21
-41.816
-44.353
-46.814
-49.191
-51.48
-53.675
-55.77
-57.762
-59.644
-61.414
-63.067
-64.601
-66.013
-67.3
-68.46
-69.493
-70.396
-71.169
-71.813
-72.327
-72.711
-72.968
-73.097
-73.103
-72.987
-72.753
-72.404
-71.945
-71.38
-70.715
-69.954
-69.105
-68.172
-67.162
-66.083
-64.94
-63.74
-62.491
-61.199
-59.871
-58.515
-57.137
-55.744
-54.343
-52.94
-51.543
-50.157
-48.788
-47.443
-46.127
-44.845
-43.604
-42.407
-41.26
-40.167
-39.13
-38.155
-37.242
-36.396
-35.618
-34.91
-34.272
-33.706
-33.212
-32.79
-32.442
-32.166
-31.962
-31.831
-31.771
-31.783
-31.865
-32.017
-32.238
-32.526
-32.881
-33.3
-33.783
-34.329
-34.934
-35.598
-36.318
-37.093
-37.921
-38.798
-39.724
-40.695
-41.71
-42.766
-43.861
-44.993
-46.158
-47.355
-48.582
-49.837
-51.117
-52.419
-53.74
-55.078
-56.428
-57.787
-59.15
-60.513
-61.871
-63.22
-64.556
-65.874
-67.169
-68.438
-69.677
-70.883
-72.051
-73.18
-74.266
-75.306
-76.299
-77.244
-78.141
-78.989
-79.79
-80.545
-81.259
-81.938
-82.584
-83.204
-83.803
-84.386
-84.962
-85.541
-86.132
-86.742
-87.379
-88.053
-88.777
-89.561
-90.417
-91.353
-92.372
-93.482
-94.689
-96
-97.419
-98.944
-100.572
-102.3
-104.13
-106.071
-108.124
-110.29
-112.566
-114.944
-117.417
-119.974
-122.595
-125.256
-127.93
-130.585
-133.19
-135.725
-138.172
-140.516
-142.752
-144.85
-146.762
-148.439
-149.82
-150.889
-151.693
-152.262
-152.602
-152.786
-152.933
-153.285
-154.235
-155.994
-158.536
-161.798
-165.741
-170.342
-175.544
-180.932
-185.589
-188.785
-190.224
-189.872
-187.816
-183.976
-178.295
-171.247
-164.162
-158.77
-156.517
-158.301
-164.957
-176.463
-191.074
-207.039
-221.712
-233.747
-246.617
-262.444
-278.658
-288.082
-275.145
-223.865
-129.395
5.312
168.58
340.303
505.663
651.792
763.964
835.118
860.43
838.262
776.1
681.44
558.632
410.873
242.569
62.833
-110.246
-252.641
-350.574
-402.679
-418.337
-416.756
-408.238
-391.867
-367.074
-332.633
-293.226
-261.311
-241.177
-229.604
-222.455
-212.243
-197.285
-182.503
-169.994
-160.9
-155.051
-149.33
-142.093
-133.27
-122.511
-110.051
-96.462
-82.138
-67.605
-53.697
-41.221
-30.611
-22.276
-16.423
-12.894
-11.478
-11.856
-13.477
-15.74
-18.195
-20.468
-22.339
-23.741
-24.58
-24.777
-24.286
-23.09
-21.199
-18.627
-15.389
-11.499
-7.005
-1.993
3.398
9.009
14.693
20.311
25.776
31.028
36.012
40.692
45.039
49.035
52.686
56.006
59.009
61.71
64.131
66.303
68.281
70.129
71.913
73.701
75.549
77.499
79.594
81.863
84.333
87.024
89.947
93.107
96.511
100.163
104.071
108.24
112.674
117.38
122.357
127.586
133.045
138.705
144.536
150.517
156.618
162.797
169.024
175.277
181.543
187.834
194.138
200.428
206.667
212.794
218.77
224.583
230.221
235.679
240.951
246.017
250.879
255.574
260.105
264.445
268.533
272.266
275.581
278.462
280.905
282.917
284.48
285.54
286.04
285.937
285.175
283.7
281.438
278.275
274.149
269.061
263.056
256.226
248.619
240.221
231.005
220.975
210.167
198.653
186.527
173.867
160.788
147.449
134.014
120.674
107.578
94.8
82.382
70.356
58.779
47.767
37.452
27.915
19.212
11.378
4.412
-1.683
-6.951
-11.505
-15.455
-18.906
-21.937
-24.574
-26.829
-28.727
-30.303
-31.62
-32.761
-33.779
-34.713
-35.606
-36.468
-37.306
-38.093
-38.752
-39.212
-39.43
-39.374
-39.044
-38.452
-37.594
-36.475
-35.102
-33.469
-31.579
-29.438
-27.045
-24.414
-21.573
-18.56
-15.435
-12.258
-9.07
-5.907
-2.797
0.241
3.184
6.017
8.734
11.324
13.775
16.074
18.204
20.154
21.918
23.493
24.879
26.079
27.094
27.924
28.571
29.033
29.309
29.398
29.296
29.001
28.514
27.837
26.976
25.937
24.725
23.35
21.82
20.146
18.338
16.405
14.358
12.208
9.967
7.647
5.26
2.818
0.335
-2.179
-4.71
-7.247
-9.777
-12.289
-14.771
-17.213
-19.603
-21.932
-24.189
-26.364
-28.449
-30.433
-32.31
-34.07
-35.707
-37.215
-38.589
-39.824
-40.918
-41.869
-42.675
-43.338
-43.857
-44.235
-44.474
-44.578
-44.55
-44.396
-44.121
-43.731
-43.232
-42.633
-41.94
-41.161
-40.305
-39.379
-38.391
-37.351
-36.266
-35.145
-33.997
-32.829
-31.652
-30.472
-29.299
-28.14
-27.003
-25.894
-24.82
-23.786
-22.799
-21.862
-20.98
-20.156
-19.394
-18.697
-18.066
-17.504
-17.011
-16.588
-16.235
-15.952
-15.736
-15.586
-15.5
-15.476
-15.513
-15.608
-15.759
-15.964
-16.22
-16.526
-16.878
-17.274
-17.71
-18.184
-18.692
-19.232
-19.802
-20.401
-21.025
-21.675
-22.349
-23.045
-23.763
-24.5
-25.254
-26.023
-26.803
-27.593
-28.388
-29.186
-29.985
-30.784
-31.581
-32.378
-33.173
-33.965
-34.755
-35.54
-36.317
-37.081
-37.825
-38.541
-39.223
-39.864
-40.461
-41.011
-41.507
-41.946
-42.33
-42.654
-42.914
-43.101
-43.199
-43.197
-43.095
-42.9
-42.626
-42.299
-41.936
-41.561
-41.205
-40.886
-40.615
-40.392
-40.193
-39.993
-39.785
-39.57
-39.368
-39.204
-39.071
-38.961
-38.859
-38.725
-38.526
-38.224
-37.746
-37.049
-36.128
-35.004
-33.755
-32.476
-31.225
-30.048
-28.971
-27.997
-27.159
-26.483
-25.974
-25.669
-25.603
-25.825
-26.434
-27.481
-28.961
-30.836
-33.006
-35.36
-37.812
-40.273
-42.652
-44.897
-46.978
-48.946
-50.863
-52.705
-54.516
-56.373
-58.427
-61.021
-64.355
-68.394
-73.177
-78.813
-85.243
-92.341
-99.551
-105.696
-110.008
-112.235
-112.167
-109.769
-105.15
-98.546
-91.035
-84.671
-81.193
-81.717
-87.099
-98.035
-113.867
-132.32
-150.7
-164.976
-174.509
-183.182
-191.012
-194.913
-185.75
-147.431
-71.75
40.292
180.211
331.548
480.593
618.823
739.062
833.633
895.029
915.521
888.514
816.064
702.588
552.774
378.448
190.918
4.491
-159.378
-286.076
-369.524
-411.115
-424.226
-423.335
-415.085
-402.041
-382.317
-352.436
-314.325
-272.592
-231.527
-195.644
-167.57
-147.898
-136.326
-131.692
-132.346
-136.649
-143.347
-151.216
-158.514
-163.538
-165.341
-163.63
-158.755
-151.475
-142.375
-132.03
-121.478
-111.884
-103.973
-98.085
-94.145
-91.714
-90.431
-89.971
-89.838
-89.525
-88.714
-87.229
-85.056
-82.306
-79.054
-75.359
-71.299
-66.93
-62.286
-57.373
-52.216
-46.886
-41.467
-36.05
-30.718
-25.522
-20.499
-15.686
-11.094
-6.71
-2.51
1.545
5.477
9.286
12.971
16.532
19.985
23.378
26.753
30.147
33.6
37.143
40.81
44.64
48.656
52.861
57.262
61.859
66.659
71.676
76.92
82.398
88.113
94.063
100.245
106.654
113.282
120.114
127.134
134.319
141.652
149.112
156.678
164.327
172.03
179.758
187.48
195.166
202.779
210.285
217.643
224.818
231.768
238.458
244.849
250.903
256.582
261.851
266.675
271.021
274.858
278.155
280.886
283.025
284.551
285.443
285.686
285.267
284.176
282.407
279.958
276.83
273.029
268.561
263.439
257.679
251.297
244.317
236.762
228.66
220.041
210.94
201.391
191.434
181.107
170.454
159.518
148.342
136.973
125.456
113.838
102.166
90.486
78.844
67.287
55.859
44.602
33.559
22.77
12.272
2.1
-7.712
-17.134
-26.138
-34.701
-42.8
-50.417
-57.536
-64.145
-70.236
-75.801
-80.839
-85.35
-89.338
-92.809
-95.773
-98.241
-100.228
-101.75
-102.827
-103.48
-103.731
-103.606
-103.13
-102.331
-101.238
-99.879
-98.286
-96.487
-94.515
-92.397
-90.165
-87.848
-85.473
-83.068
-80.66
-78.272
-75.929
-73.653
-71.462
-69.377
-67.412
-65.582
-63.901
-62.377
-61.02
-59.837
-58.833
-58.01
-57.369
-56.912
-56.635
-56.536
-56.609
-56.848
-57.245
-57.793
-58.48
-59.296
-60.229
-61.267
-62.399
-63.609
-64.886
-66.217
-67.587
-68.985
-70.397
-71.812
-73.218
-74.605
-75.962
-77.281
-78.554
-79.773
-80.933
-82.028
-83.055
-84.01
-84.892
-85.699
-86.43
-87.087
-87.67
-88.183
-88.627
-89.008
-89.329
-89.596
-89.815
-89.992
-90.133
-90.248
-90.342
-90.424
-90.502
-90.584
-90.677
-90.791
-90.933
-91.109
-91.328
-91.595
-91.916
-92.297
-92.742
-93.256
-93.842
-94.503
-95.239
-96.054
-96.947
-97.918
-98.966
-100.091
-101.29
-102.561
-103.9
-105.304
-106.768
-108.287
-109.855
-111.466
-113.114
-114.791
-116.489
-118.2
-119.917
-121.631
-123.334
-125.017
-126.671
-128.288
-129.861
-131.38
-132.839
-134.23
-135.545
-136.78
-137.926
-138.979
-139.934
-140.786
-141.531
-142.164
-142.683
-143.085
-143.367
-143.528
-143.566
-143.481
-143.274
-142.945
-142.497
-141.931
-141.253
-140.465
-139.573
-138.582
-137.498
-136.326
-135.073
-133.747
-132.353
-130.899
-129.392
-127.841
-126.253
-124.635
-122.997
-121.347
-119.69
-118.036
-116.391
-114.763
-113.159
-111.586
-110.052
-108.562
-107.123
-105.742
-104.424
-103.173
-101.992
-100.883
-99.848
-98.885
-97.993
-97.169
-96.409
-95.71
-95.067
-94.478
-93.937
-93.44
-92.984
-92.564
-92.174
-91.807
-91.452
-91.097
-90.733
-90.346
-89.923
-89.451
-88.914
-88.3
-87.6
-86.805
-85.904
-84.881
-83.714
-82.39
-80.905
-79.26
-77.459
-75.512
-73.43
-71.236
-68.972
-66.671
-64.371
-62.09
-59.822
-57.571
-55.344
-53.148
-50.999
-48.891
-46.791
-44.678
-42.531
-40.326
-38.041
-35.618
-32.964
-30.004
-26.681
-22.979
-18.929
-14.557
-9.882
-4.944
0.209
5.492
10.777
15.977
21.036
25.891
30.481
34.7
38.397
41.456
43.801
45.386
46.211
46.274
45.57
44.144
42.091
39.538
36.613
33.411
29.983
26.319
22.378
18.055
13.139
7.431
0.789
-6.954
-15.853
-25.719
-36.236
-46.742
-56.235
-63.807
-68.593
-69.761
-66.962
-60.322
-50.248
-37.927
-25.161
-13.91
-6.403
-4.631
-9.816
-22.469
-42.577
-69.387
-100.054
-129.785
-153.893
-167.239
-168.452
-160.643
-142.769
-112.916
-65.588
10.974
119.456
257.221
418.024
584.552
743.377
883.108
987.787
1049.777
1062.392
1019.325
926.709
790.399
616.614
418.974
206.881
-5.342
-196.714
-352.902
-460.785
-515.874
-524.435
-494.226
-438.909
-372.688
-309.039
-259.812
-227.727
-209.528
-196.5
-180.549
-160.754
-140.124
-124.484
-117.796
-119.133
-125.27
-132.086
-136.331
-136.466
-132.202
-123.977
-112.389
-98.264
-82.649
-66.565
-51.255
-37.957
-27.282
-19.437
-14.351
-11.636
-10.876
-11.66
-13.42
-15.582
-17.821
-19.95
-21.873
-23.559
-24.87
-25.649
-25.832
-25.407
-24.375
-22.738
-20.484
-17.611
-14.184
-10.308
-6.097
-1.631
3.048
7.908
12.897
17.935
22.913
27.745
32.384
36.8
40.977
44.908
48.587
52.035
55.3
58.441
61.509
64.546
67.574
70.62
73.723
76.927
80.289
83.851
87.642
91.686
96.006
100.618
105.536
110.762
116.283
122.086
128.162
134.501
141.097
147.936
154.999
162.266
169.712
177.313
185.045
192.878
200.782
208.723
216.669
224.587
232.443
240.202
247.825
255.273
262.505
269.482
276.163
282.509
288.48
294.04
299.153
303.785
307.907
311.489
314.505
316.932
318.748
319.937
320.483
320.376
319.608
318.174
316.074
313.31
309.888
305.815
301.105
295.773
289.837
283.32
276.245
268.641
260.538
251.971
242.975
233.589
223.852
213.807
203.495
192.961
182.249
171.404
160.472
149.496
138.52
127.589
116.744
106.026
95.476
85.129
75.024
65.192
55.666
46.474
37.645
29.201
21.164
13.556
6.391
-0.316
-6.553
-12.313
-17.588
-22.378
-26.681
-30.5
-33.841
-36.712
-39.123
-41.087
-42.619
-43.735
-44.453
-44.793
-44.777
-44.427
-43.767
-42.82
-41.612
-40.169
-38.514
-36.674
-34.674
-32.538
-30.29
-27.955
-25.554
-23.11
-20.644
-18.178
-15.73
-13.32
-10.966
-8.682
-6.485
-4.389
-2.404
-0.542
1.187
2.776
4.218
5.508
6.642
7.618
8.433
9.089
9.585
9.924
10.11
10.146
10.038
9.791
9.411
8.906
8.283
7.548
6.711
5.778
4.759
3.661
2.494
1.265
-0.015
-1.338
-2.696
-4.078
-5.478
-6.887
-8.297
-9.7
-11.091
-12.461
-13.805
-15.118
-16.393
-17.627
-18.813
-19.95
-21.033
-22.06
-23.029
-23.938
-24.788
-25.577
-26.307
-26.976
-27.587
-28.141
-28.639
-29.083
-29.476
-29.821
-30.121
-30.38
-30.602
-30.792
-30.953
-31.092
-31.211
-31.318
-31.414
-31.507
-31.598
-31.694
-31.798
-31.914
-32.047
-32.199
-32.375
-32.578
-32.811
-33.076
-33.374
-33.709
-34.08
-34.488
-34.934
-35.417
-35.937
-36.494
-37.085
-37.71
-38.365
-39.048
-39.755
-40.483
-41.226
-41.98
-42.739
-43.498
-44.251
-44.995
-45.723
-46.431
-47.115
-47.771
-48.394
-48.98
-49.526
-50.027
-50.48
-50.881
-51.229
-51.52
-51.753
-51.925
-52.037
-52.088
-52.078
-52.007
-51.876
-51.686
-51.44
-51.139
-50.787
-50.387
-49.946
-49.467
-48.958
-48.424
-47.873
-47.309
-46.74
-46.171
-45.605
-45.047
-44.498
-43.962
-43.441
-42.936
-42.449
-41.983
-41.54
-41.121
-40.73
-40.369
-40.039
-39.738
-39.464
-39.212
-38.978
-38.756
-38.537
-38.315
-38.078
-37.817
-37.526
-37.197
-36.822
-36.387
-35.873
-35.265
-34.56
-33.755
-32.852
-31.862
-30.793
-29.664
-28.512
-27.368
-26.263
-25.22
-24.239
-23.319
-22.462
-21.671
-20.952
-20.297
-19.674
-19.042
-18.374
-17.628
-16.769
-15.739
-14.442
-12.795
-10.742
-8.239
-5.301
-1.953
1.783
5.867
10.241
14.827
19.506
24.155
28.696
33.045
37.122
40.83
44.011
46.536
48.323
49.314
49.519
48.964
47.668
45.684
43.107
40.043
36.625
32.96
29.059
24.926
20.57
16.027
11.387
6.676
1.878
-3.044
-8.161
-13.49
-19.091
-25.171
-31.882
-39.238
-47.124
-55.13
-62.709
-69.463
-74.864
-78.165
-78.932
-77.083
-72.966
-67.61
-62.377
-58.494
-57.166
-60.005
-67.013
-75.843
-84.158
-88.862
-89.107
-88.779
-88.867
-85.343
-69.975
-28.416
49.982
164.677
309.33
471.021
633.146
784.436
911.056
997.797
1035.968
1017.197
942.735
822.733
664.615
480.86
284.445
88.238
-86.525
-222.156
-311.644
-356.393
-368.955
-365.985
-353.971
-333.689
-306.612
-270.564
-230.566
-196.134
-167.936
-147.609
-134.825
-124.654
-118.398
-116.905
-118.359
-122.434
-126.573
-127.834
-125.385
-119.017
-109.086
-96.46
-82.112
-66.981
-52.121
-38.819
-27.934
-19.765
-14.428
-11.701
-11.186
-12.562
-15.32
-18.778
-22.41
-25.838
-28.828
-31.342
-33.349
-34.773
-35.574
-35.716
-35.183
-33.991
-32.147
-29.661
-26.561
-22.903
-18.796
-14.393
-9.856
-5.34
-0.949
3.259
7.239
10.957
14.387
17.502
20.304
22.817
25.055
27.039
28.789
30.323
31.685
32.937
34.148
35.39
36.722
38.182
39.812
41.644
43.71
46.038
48.646
51.54
54.729
58.219
62.02
66.147
70.607
75.405
80.539
85.993
91.754
97.809
104.133
110.694
117.445
124.323
131.283
138.292
145.323
152.359
159.377
166.35
173.256
180.077
186.796
193.402
199.874
206.181
212.321
218.304
224.165
229.968
235.73
241.441
247.084
252.621
258.007
263.196
268.105
272.632
276.704
280.241
283.177
285.461
286.988
287.65
287.33
285.888
283.254
279.391
274.256
267.84
260.16
251.246
241.196
230.135
218.13
205.273
191.664
177.41
162.7
147.715
132.615
117.57
102.703
88.118
73.945
60.287
47.207
34.765
22.97
11.82
1.387
-8.294
-17.225
-25.43
-33.014
-40.063
-46.617
-52.723
-58.41
-63.709
-68.671
-73.328
-77.675
-81.719
-85.457
-88.9
-92.116
-95.141
-97.974
-100.595
-102.937
-104.955
-106.646
-108.003
-109.02
-109.695
-110.023
-110.016
-109.719
-109.163
-108.369
-107.346
-106.079
-104.573
-102.855
-100.963
-98.948
-96.855
-94.711
-92.548
-90.404
-88.31
-86.29
-84.36
-82.518
-80.772
-79.133
-77.619
-76.249
-75.037
-73.987
-73.105
-72.391
-71.847
-71.473
-71.265
-71.214
-71.315
-71.564
-71.958
-72.497
-73.18
-73.999
-74.951
-76.028
-77.226
-78.536
-79.949
-81.457
-83.05
-84.72
-86.458
-88.256
-90.107
-92.002
-93.933
-95.891
-97.868
-99.855
-101.844
-103.825
-105.792
-107.736
-109.65
-111.527
-113.36
-115.144
-116.872
-118.54
-120.143
-121.676
-123.135
-124.516
-125.815
-127.029
-128.155
-129.189
-130.128
-130.972
-131.718
-132.366
-132.914
-133.363
-133.71
-133.958
-134.105
-134.152
-134.101
-133.954
-133.711
-133.376
-132.952
-132.443
-131.852
-131.184
-130.443
-129.634
-128.761
-127.829
-126.843
-125.809
-124.733
-123.619
-122.476
-121.309
-120.125
-118.93
-117.733
-116.539
-115.354
-114.186
-113.04
-111.922
-110.837
-109.792
-108.792
-107.843
-106.949
-106.117
-105.349
-104.651
-104.025
-103.472
-102.995
-102.595
-102.272
-102.026
-101.858
-101.767
-101.752
-101.813
-101.947
-102.151
-102.423
-102.756
-103.146
-103.586
-104.067
-104.58
-105.116
-105.668
-106.227
-106.785
-107.335
-107.87
-108.383
-108.867
-109.315
-109.717
-110.061
-110.336
-110.527
-110.622
-110.61
-110.48
-110.223
-109.832
-109.303
-108.632
-107.818
-106.854
-105.73
-104.435
-102.959
-101.301
-99.466
-97.465
-95.322
-93.066
-90.734
-88.365
-85.987
-83.623
-81.281
-78.952
-76.628
-74.293
-71.947
-69.603
-67.275
-64.974
-62.702
-60.455
-58.208
-55.923
-53.551
-51.029
-48.315
-45.387
-42.257
-38.976
-35.62
-32.292
-29.076
-26.026
-23.189
-20.608
-18.317
-16.355
-14.765
-13.588
-12.88
-12.721
-13.168
-14.255
-15.965
-18.222
-20.903
-23.841
-26.89
-29.934
-32.869
-35.613
-38.115
-40.356
-42.35
-44.144
-45.751
-47.165
-48.412
-49.539
-50.644
-51.863
-53.327
-55.245
-57.9
-61.492
-66.106
-71.666
-77.843
-84.241
-90.502
-96.069
-100.204
-102.348
-102.264
-100.175
-96.851
-93.332
-90.591
-89.823
-92.744
-99.615
-108.738
-118.125
-124.724
-128.81
-134.824
-142.712
-148.791
-141.883
-103.979
-27.649
85.593
224.43
368.812
508.961
641.094
762.823
871.923
955.271
994.435
975.002
891.447
749.266
563.547
354.894
143.759
-48.67
-203.787
-312.423
-376.172
-404.357
-410.432
-404.852
-387.708
-358.99
-322.004
-280.197
-243.732
-217.67
-198.118
-182.449
-165.925
-147.383
-131.604
-120.603
-115.224
-114.882
-116.414
-117.958
-118.286
-116.123
-111.374
-104.209
-94.826
-83.821
-71.731
-59.097
-46.896
-36.196
-27.603
-21.323
-17.253
-15.037
-14.343
-14.859
-16.071
-17.387
-18.422
-18.975
-19.001
-18.572
-17.697
-16.322
-14.412
-11.978
-9.043
-5.64
-1.795
2.48
7.121
12.021
17.034
22.004
26.829
31.457
35.863
40.037
43.967
47.635
51.029
54.161
57.042
59.691
62.125
64.362
66.439
68.412
70.355
72.352
74.464
76.734
79.195
81.873
84.792
87.976
91.435
95.173
99.193
103.503
108.109
113.02
118.235
123.745
129.534
135.585
141.879
148.395
155.112
162.006
169.051
176.22
183.487
190.825
198.203
205.586
212.937
220.215
227.379
234.389
241.201
247.772
254.058
260.019
265.615
270.806
275.557
279.832
283.597
286.823
289.482
291.549
293.001
293.819
293.989
293.498
292.339
290.507
288.001
284.825
280.984
276.49
271.355
265.596
259.235
252.294
244.799
236.782
228.274
219.311
209.932
200.176
190.085
179.704
169.075
158.246
147.262
136.168
125.01
113.835
102.686
91.609
80.645
69.836
59.222
48.839
38.723
28.908
19.424
10.298
1.556
-6.778
-14.686
-22.15
-29.156
-35.693
-41.753
-47.329
-52.421
-57.028
-61.154
-64.805
-67.99
-70.72
-73.007
-74.867
-76.318
-77.377
-78.066
-78.406
-78.419
-78.13
-77.562
-76.742
-75.694
-74.443
-73.015
-71.434
-69.726
-67.912
-66.018
-64.065
-62.075
-60.069
-58.065
-56.084
-54.141
-52.253
-50.434
-48.698
-47.056
-45.518
-44.094
-42.791
-41.615
-40.573
-39.668
-38.903
-38.28
-37.8
-37.464
-37.271
-37.219
-37.306
-37.529
-37.886
-38.372
-38.984
-39.718
-40.569
-41.534
-42.606
-43.783
-45.058
-46.428
-47.887
-49.432
-51.056
-52.757
-54.53
-56.372
-58.277
-60.244
-62.268
-64.346
-66.476
-68.654
-70.877
-73.142
-75.447
-77.788
-80.163
-82.567
-85
-87.456
-89.933
-92.427
-94.934
-97.451
-99.974
-102.497
-105.018
-107.532
-110.034
-112.519
-114.983
-117.421
-119.828
-122.199
-124.529
-126.813
-129.045
-131.22
-133.333
-135.379
-137.354
-139.251
-141.067
-142.797
-144.437
-145.982
-147.429
-148.774
-150.014
-151.147
-152.169
-153.081
-153.879
-154.563
-155.133
-155.589
-155.931
-156.159
-156.275
-156.28
-156.177
-155.966
-155.652
-155.237
-154.726
-154.121
-153.428
-152.651
-151.796
-150.867
-149.871
-148.813
-147.698
-146.532
-145.322
-144.075
-142.797
-141.494
-140.173
-138.841
-137.504
-136.169
-134.841
-133.525
-132.226
-130.951
-129.702
-128.485
-127.303
-126.161
-125.061
-124.007
-123.001
-122.044
-121.138
-120.283
-119.477
-118.72
-118.01
-117.343
-116.715
-116.121
-115.559
-115.024
-114.509
-114.009
-113.516
-113.024
-112.523
-112.008
-111.467
-110.889
-110.263
-109.578
-108.825
-107.995
-107.077
-106.063
-104.943
-103.709
-102.355
-100.877
-99.265
-97.509
-95.6
-93.53
-91.302
-88.923
-86.395
-83.721
-80.91
-77.971
-74.921
-71.781
-68.553
-65.241
-61.849
-58.379
-54.853
-51.295
-47.724
-44.164
-40.622
-37.104
-33.634
-30.232
-26.901
-23.652
-20.474
-17.355
-14.329
-11.43
-8.688
-6.14
-3.798
-1.67
0.225
1.873
3.252
4.343
5.156
5.711
6.011
6.063
5.856
5.374
4.666
3.792
2.811
1.797
0.788
-0.194
-1.117
-1.935
-2.592
-3.044
-3.301
-3.431
-3.518
-3.604
-3.665
-3.734
-4.015
-4.846
-6.573
-9.375
-13.233
-18.134
-24.176
-31.338
-39.242
-46.982
-53.439
-57.824
-59.797
-59.234
-56.029
-50.23
-42.445
-34.427
-28.484
-26.549
-30.258
-39.531
-52.73
-68.755
-85.426
-102.61
-123.47
-146.499
-167.032
-174.245
-149.526
-83.639
22.214
157.919
302.542
443.751
579.567
709.517
836
949.945
1031.971
1066.213
1039.535
952.203
815.509
639.033
437.171
224.183
13.712
-172.28
-315.559
-408.206
-448.064
-444.211
-413.406
-367.214
-318.293
-279.826
-254.135
-241.256
-236.25
-226.325
-206.804
-178.972
-147.004
-119.656
-100.688
-88.706
-81.504
-76.233
-71.473
-67.061
-62.559
-57.214
-50.6
-42.921
-34.586
-25.891
-17.177
-8.804
-1.344
4.287
7.605
8.689
7.777
5.281
1.615
-2.946
-7.971
-12.846
-17.149
-20.606
-23.063
-24.559
-25.111
-24.687
-23.322
-21.081
-18.04
-14.319
-10.026
-5.237
-0.065
5.386
11.002
16.632
22.164
27.512
32.612
37.447
42.009
46.286
50.285
54.028
57.542
60.878
64.079
67.179
70.221
73.251
76.32
79.498
82.835
86.365
90.117
94.106
98.344
102.845
107.611
112.635
117.911
123.431
129.186
135.175
141.39
147.815
154.434
161.223
168.163
175.234
182.413
189.675
196.994
204.343
211.694
219.021
226.294
233.479
240.542
247.445
254.152
260.628
266.835
272.734
278.291
283.469
288.236
292.56
296.409
299.756
302.573
304.835
306.52
307.609
308.083
307.927
307.131
305.685
303.583
300.823
297.405
293.333
288.614
283.256
277.275
270.685
263.508
255.765
247.481
238.685
229.408
219.683
209.545
199.03
188.177
177.026
165.618
153.996
142.2
130.274
118.261
106.203
94.143
82.122
70.182
58.362
46.701
35.237
24.005
13.04
2.375
-7.96
-17.937
-27.528
-36.711
-45.464
-53.768
-61.609
-68.973
-75.85
-82.233
-88.118
-93.502
-98.386
-102.773
-106.67
-110.083
-113.024
-115.504
-117.538
-119.142
-120.334
-121.134
-121.561
-121.638
-121.388
-120.832
-119.997
-118.905
-117.582
-116.054
-114.346
-112.482
-110.488
-108.39
-106.209
-103.971
-101.697
-99.409
-97.125
-94.867
-92.65
-90.491
-88.406
-86.408
-84.509
-82.72
-81.05
-79.509
-78.102
-76.835
-75.711
-74.733
-73.902
-73.219
-72.682
-72.29
-72.041
-71.929
-71.951
-72.102
-72.375
-72.763
-73.259
-73.854
-74.541
-75.311
-76.155
-77.063
-78.028
-79.04
-80.091
-81.173
-82.278
-83.398
-84.526
-85.653
-86.774
-87.882
-88.971
-90.036
-91.071
-92.072
-93.035
-93.956
-94.833
-95.663
-96.444
-97.172
-97.848
-98.47
-99.038
-99.551
-100.011
-100.418
-100.774
-101.08
-101.339
-101.553
-101.725
-101.857
-101.952
-102.013
-102.043
-102.045
-102.021
-101.975
-101.909
-101.827
-101.732
-101.625
-101.509
-101.387
-101.261
-101.133
-101.004
-100.878
-100.754
-100.636
-100.525
-100.422
-100.33
-100.248
-100.178
-100.12
-100.074
-100.039
-100.016
-100.004
-100.002
-100.008
-100.022
-100.041
-100.066
-100.093
-100.121
-100.149
-100.174
-100.193
-100.206
-100.212
-100.207
-100.192
-100.165
-100.127
-100.077
-100.015
-99.94
-99.853
-99.752
-99.637
-99.509
-99.367
-99.21
-99.039
-98.855
-98.659
-98.452
-98.236
-98.012
-97.782
-97.548
-97.31
-97.072
-96.835
-96.601
-96.372
-96.151
-95.941
-95.743
-95.561
-95.393
-95.242
-95.106
-94.985
-94.876
-94.776
-94.679
-94.581
-94.479
-94.368
-94.244
-94.102
-93.939
-93.752
-93.539
-93.294
-93.012
-92.684
-92.301
-91.851
-91.325
-90.71
-89.995
-89.169
-88.223
-87.15
-85.949
-84.611
-83.131
-81.497
-79.694
-77.715
-75.562
-73.235
-70.743
-68.104
-65.341
-62.492
-59.604
-56.703
-53.813
-50.944
-48.088
-45.244
-42.411
-39.578
-36.757
-33.954
-31.162
-28.393
-25.646
-22.899
-20.117
-17.239
-14.187
-10.925
-7.44
-3.74
0.127
4.108
8.134
12.108
15.967
19.667
23.166
26.453
29.509
32.288
34.729
36.753
38.262
39.198
39.539
39.268
38.417
37.06
35.319
33.34
31.215
28.971
26.554
23.931
21.152
18.169
14.836
11.004
6.49
1.273
-4.408
-10.484
-17.178
-24.482
-32.193
-39.914
-46.827
-52.507
-57.139
-60.585
-62.335
-62.125
-59.936
-56.446
-53.27
-51.415
-51.192
-53.264
-58.375
-67.479
-80.38
-93.969
-104.263
-107.8
-103.623
-95.367
-85.534
-71.683
-47.763
-2.214
76.103
188.905
333.085
499.944
673.176
838.302
978.023
1072.283
1107.974
1076.903
980.899
831.213
643.12
436.533
230.305
44.654
-102.688
-205.761
-266.137
-295.371
-309.702
-316.437
-317.026
-308.507
-285.711
-249.9
-206.551
-161.826
-121.801
-89.605
-66.123
-51.179
-43.509
-41.554
-43.242
-46.269
-48.812
-49.075
-45.708
-38.312
-26.933
-12.126
4.908
22.9
40.593
56.581
69.912
80.196
87.286
91.364
92.817
92.044
89.598
86.167
82.262
78.195
74.167
70.279
66.679
63.558
61.056
59.235
58.118
57.728
58.092
59.237
61.151
63.761
66.95
70.604
74.627
78.937
83.462
88.111
92.757
97.301
101.663
105.795
109.681
113.309
116.666
119.762
122.626
125.302
127.846
130.31
132.728
135.139
137.585
140.114
142.789
145.656
148.748
152.089
155.698
159.586
163.769
168.247
173.01
178.049
183.352
188.908
194.712
200.751
207.006
213.456
220.078
226.847
233.739
240.729
247.787
254.883
261.986
269.065
276.09
283.026
289.837
296.485
302.931
309.136
315.061
320.669
325.919
330.776
335.204
339.171
342.645
345.598
348.002
349.832
351.066
351.685
351.673
351.014
349.699
347.72
345.072
341.754
337.77
333.124
327.824
321.883
315.316
308.142
300.383
292.062
283.208
273.852
264.026
253.766
243.109
232.095
220.763
209.157
197.318
185.291
173.119
160.846
148.515
136.17
123.855
111.61
99.478
87.498
75.707
64.144
52.843
41.838
31.159
20.835
10.894
1.359
-7.748
-16.408
-24.605
-32.326
-39.56
-46.3
-52.54
-58.28
-63.52
-68.264
-72.518
-76.289
-79.589
-82.429
-84.825
-86.793
-88.349
-89.515
-90.31
-90.756
-90.876
-90.693
-90.232
-89.516
-88.57
-87.419
-86.087
-84.599
-82.979
-81.251
-79.438
-77.562
-75.645
-73.707
-71.767
-69.844
-67.953
-66.11
-64.329
-62.622
-60.998
-59.469
-58.04
-56.72
-55.513
-54.423
-53.453
-52.605
-51.878
-51.271
-50.784
-50.412
-50.153
-50.002
-49.954
-50.004
-50.144
-50.369
-50.671
-51.045
-51.481
-51.972
-52.511
-53.09
-53.7
-54.336
-54.989
-55.652
-56.321
-56.989
-57.651
-58.303
-58.942
-59.563
-60.164
-60.742
-61.297
-61.827
-62.331
-62.809
-63.262
-63.69
-64.094
-64.476
-64.839
-65.185
-65.516
-65.835
-66.146
-66.45
-66.752
-67.054
-67.36
-67.674
-67.998
-68.336
-68.692
-69.069
-69.469
-69.895
-70.349
-70.832
-71.347
-71.893
-72.471
-73.081
-73.722
-74.393
-75.095
-75.825
-76.581
-77.362
-78.165
-78.987
-79.825
-80.676
-81.537
-82.402
-83.269
-84.133
-84.991
-85.84
-86.675
-87.493
-88.29
-89.065
-89.813
-90.531
-91.218
-91.87
-92.486
-93.065
-93.606
-94.109
-94.575
-95.004
-95.398
-95.76
-96.092
-96.396
-96.675
-96.933
-97.174
-97.401
-97.619
-97.834
-98.049
-98.271
-98.505
-98.758
-99.035
-99.342
-99.684
-100.067
-100.495
-100.973
-101.505
-102.094
-102.742
-103.453
-104.229
-105.07
-105.978
-106.952
-107.99
-109.09
-110.248
-111.461
-112.723
-114.028
-115.37
-116.742
-118.138
-119.551
-120.973
-122.396
-123.812
-125.212
-126.589
-127.931
-129.231
-130.478
-131.664
-132.782
-133.824
-134.781
-135.648
-136.422
-137.1
-137.683
-138.169
-138.558
-138.851
-139.054
-139.174
-139.215
-139.182
-139.077
-138.905
-138.676
-138.4
-138.086
-137.74
-137.366
-136.969
-136.56
-136.15
-135.746
-135.343
-134.938
-134.525
-134.109
-133.715
-133.359
-133.05
-132.796
-132.602
-132.471
-132.414
-132.425
-132.474
-132.528
-132.546
-132.492
-132.359
-132.133
-131.81
-131.378
-130.782
-129.961
-128.858
-127.415
-125.634
-123.564
-121.224
-118.614
-115.813
-112.982
-110.45
-108.572
-107.461
-107.03
-107.131
-107.83
-109.343
-111.639
-114.224
-116.32
-117.441
-117.639
-117.061
-115.499
-112.462
-107.504
-102.112
-98.433
-96.804
-97.988
-99.761
-100.114
-102.91
-108.811
-119.776
-137.967
-157.772
-178.935
-200.175
-213.942
-214.277
-187.959
-123.243
-19.976
115.717
270.11
428.44
581.572
722.594
841.986
927.748
968.204
953.614
885.036
770.743
617.783
437.628
241.465
42.806
-134.387
-269.433
-352.122
-383.249
-380.007
-363.827
-346.459
-332.164
-317.368
-294.954
-264.801
-231.073
-198.44
-172.227
-154.332
-143.52
-138.303
-136.861
-137.146
-137.557
-136.834
-133.586
-127.003
-117.145
-104.292
-89.039
-72.4
-55.36
-38.904
-24.209
-12.064
-2.737
3.678
7.351
8.623
7.82
5.409
2.022
-1.833
-5.83
-9.728
-13.377
-16.659
-19.412
-21.513
-22.932
-23.647
-23.643
-22.919
-21.467
-19.308
-16.527
-13.232
-9.536
-5.569
-1.435
2.768
6.918
10.921
14.706
18.211
21.409
24.295
26.859
29.111
31.079
32.789
34.285
35.62
36.837
37.986
39.121
40.295
41.57
43
44.621
46.468
48.565
50.929
53.578
56.522
59.76
63.291
67.117
71.233
75.64
80.334
85.304
90.536
96.013
101.718
107.632
113.735
120.004
126.415
132.943
139.559
146.238
152.95
159.661
166.336
172.938
179.43
185.776
191.937
197.874
203.551
208.93
213.977
218.659
222.943
226.798
230.195
233.108
235.511
237.382
238.702
239.454
239.624
239.2
238.176
236.547
234.313
231.474
228.038
224.013
219.411
214.25
208.547
202.325
195.61
188.43
180.816
172.8
164.418
155.708
146.707
137.456
127.995
118.367
108.613
98.776
88.898
79.021
69.187
59.436
49.808
40.341
31.072
22.038
13.271
4.803
-3.336
-11.119
-18.522
-25.521
-32.098
-38.236
-43.921
-49.142
-53.892
-58.166
-61.962
-65.281
-68.127
-70.507
-72.428
-73.904
-74.946
-75.572
-75.798
-75.643
-75.129
-74.277
-73.11
-71.654
-69.932
-67.969
-65.793
-63.429
-60.902
-58.238
-55.464
-52.605
-49.685
-46.73
-43.762
-40.805
-37.881
-35.01
-32.212
-29.506
-26.908
-24.433
-22.096
-19.91
-17.884
-16.029
-14.352
-12.861
-11.56
-10.454
-9.545
-8.836
-8.326
-8.016
-7.904
-7.987
-8.264
-8.731
-9.383
-10.217
-11.228
-12.409
-13.756
-15.262
-16.921
-18.724
-20.665
-22.736
-24.928
-27.234
-29.643
-32.149
-34.741
-37.412
-40.153
-42.955
-45.81
-48.711
-51.649
-54.617
-57.608
-60.613
-63.626
-66.64
-69.648
-72.643
-75.619
-78.57
-81.488
-84.367
-87.202
-89.985
-92.71
-95.371
-97.962
-100.477
-102.91
-105.258
-107.515
-109.677
-111.742
-113.707
-115.569
-117.327
-118.98
-120.526
-121.965
-123.297
-124.521
-125.639
-126.651
-127.558
-128.361
-129.062
-129.662
-130.164
-130.569
-130.879
-131.098
-131.227
-131.271
-131.232
-131.115
-130.923
-130.662
-130.334
-129.946
-129.502
-129.007
-128.465
-127.88
-127.257
-126.598
-125.906
-125.185
-124.436
-123.662
-122.864
-122.044
-121.203
-120.342
-119.462
-118.564
-117.647
-116.713
-115.761
-114.793
-113.807
-112.806
-111.788
-110.754
-109.705
-108.639
-107.558
-106.459
-105.343
-104.208
-103.052
-101.874
-100.671
-99.443
-98.187
-96.901
-95.585
-94.237
-92.855
-91.44
-89.989
-88.503
-86.98
-85.419
-83.821
-82.184
-80.508
-78.792
-77.036
-75.239
-73.399
-71.514
-69.584
-67.606
-65.576
-63.494
-61.355
-59.158
-56.9
-54.579
-52.194
-49.742
-47.222
-44.633
-41.973
-39.244
-36.444
-33.573
-30.634
-27.628
-24.557
-21.425
-18.234
-14.989
-11.695
-8.359
-4.988
-1.592
1.818
5.228
8.626
11.996
15.327
18.607
21.824
24.967
28.024
30.983
33.835
36.567
39.163
41.611
43.899
46.02
47.98
49.783
51.436
52.94
54.286
55.462
56.462
57.274
57.887
58.291
58.475
58.45
58.253
57.919
57.48
56.948
56.303
55.537
54.659
53.701
52.729
51.807
50.974
50.295
49.867
49.702
49.732
49.776
49.516
48.683
47.112
44.694
41.358
37.271
32.822
28.492
24.858
22.325
21.032
21.008
22.262
24.377
26.548
28.022
28.078
26.33
22.835
17.501
9.961
0.415
-10.688
-23.142
-36.553
-51.231
-66.946
-81.089
-90.685
-93.454
-89.603
-84.064
-80.577
-77.072
-65.685
-31.385
39.44
149.516
293.304
457.101
621.975
775.052
905.88
1002.288
1058.602
1069.254
1029.58
945.73
822.371
662.205
474.647
268.26
58.338
-128.584
-272.242
-361.355
-395.576
-391.255
-366.24
-333.577
-303.264
-277.019
-255.015
-236.777
-218.491
-198.35
-174.436
-147.517
-122.37
-101.463
-86.381
-76.715
-69.249
-62.8
-57.357
-52.459
-48.294
-44.496
-39.933
-34.455
-28.473
-22.033
-15.31
-8.631
-2.129
3.718
8.111
10.817
11.974
11.772
10.641
8.963
6.933
4.9
3.32
2.464
2.525
3.586
5.561
8.402
12.088
16.545
21.692
27.43
33.615
40.106
46.767
53.45
60.057
66.512
72.743
78.7
84.333
89.614
94.551
99.16
103.45
107.432
111.111
114.503
117.653
120.615
123.446
126.214
128.964
131.737
134.574
137.509
140.571
143.782
147.146
150.666
154.351
158.214
162.275
166.55
171.033
175.717
180.593
185.641
190.842
196.171
201.58
207.032
212.491
217.922
223.312
228.648
233.909
239.071
244.11
249.006
253.77
258.421
262.964
267.416
271.797
276.133
280.488
284.91
289.418
294.03
298.725
303.464
308.22
312.961
317.638
322.195
326.537
330.529
334.066
337.031
339.295
340.726
341.143
340.382
338.338
334.926
330.101
323.862
316.196
307.096
296.597
284.733
271.572
257.26
241.919
225.683
208.733
191.25
173.474
155.662
138.004
120.657
103.758
87.398
71.677
56.709
42.569
29.341
17.105
5.867
-4.363
-13.574
-21.819
-29.163
-35.71
-41.616
-46.992
-51.903
-56.415
-60.558
-64.364
-67.896
-71.191
-74.295
-77.275
-80.162
-82.984
-85.777
-88.537
-91.241
-93.853
-96.287
-98.484
-100.424
-102.09
-103.486
-104.625
-105.505
-106.136
-106.534
-106.698
-106.634
-106.35
-105.847
-105.145
-104.278
-103.284
-102.223
-101.149
-100.097
-99.098
-98.173
-97.336
-96.6
-95.976
-95.46
-95.057
-94.774
-94.616
-94.593
-94.707
-94.956
-95.334
-95.831
-96.435
-97.137
-97.928
-98.798
-99.742
-100.752
-101.824
-102.957
-104.147
-105.39
-106.679
-108.009
-109.371
-110.759
-112.167
-113.587
-115.013
-116.44
-117.864
-119.28
-120.687
-122.08
-123.457
-124.814
-126.15
-127.462
-128.748
-130.007
-131.236
-132.436
-133.607
-134.747
-135.858
-136.939
-137.992
-139.016
-140.013
-140.982
-141.924
-142.838
-143.725
-144.585
-145.418
-146.225
-147.006
-147.762
-148.493
-149.199
-149.882
-150.54
-151.175
-151.785
-152.372
-152.935
-153.474
-153.989
-154.481
-154.951
-155.399
-155.826
-156.232
-156.62
-156.989
-157.341
-157.677
-157.998
-158.305
-158.599
-158.881
-159.153
-159.415
-159.668
-159.914
-160.153
-160.385
-160.613
-160.836
-161.055
-161.27
-161.483
-161.694
-161.904
-162.112
-162.318
-162.523
-162.726
-162.926
-163.123
-163.314
-163.499
-163.675
-163.84
-163.992
-164.129
-164.246
-164.341
-164.411
-164.453
-164.463
-164.44
-164.381
-164.283
-164.146
-163.968
-163.747
-163.483
-163.176
-162.823
-162.424
-161.98
-161.489
-160.951
-160.367
-159.736
-159.059
-158.338
-157.572
-156.765
-155.918
-155.032
-154.11
-153.155
-152.17
-151.159
-150.126
-149.073
-148.007
-146.932
-145.852
-144.771
-143.691
-142.616
-141.545
-140.481
-139.42
-138.361
-137.304
-136.245
-135.182
-134.113
-133.037
-131.952
-130.858
-129.752
-128.634
-127.499
-126.342
-125.155
-123.934
-122.668
-121.349
-119.967
-118.511
-116.969
-115.337
-113.607
-111.77
-109.815
-107.724
-105.486
-103.099
-100.565
-97.888
-95.084
-92.167
-89.161
-86.107
-83.045
-80.011
-77.038
-74.134
-71.305
-68.56
-65.91
-63.366
-60.931
-58.577
-56.268
-53.982
-51.686
-49.349
-46.925
-44.324
-41.466
-38.296
-34.769
-30.894
-26.704
-22.221
-17.481
-12.541
-7.48
-2.419
2.502
7.192
11.577
15.574
19.096
21.996
24.132
25.419
25.798
25.265
23.857
21.606
18.552
14.794
10.461
5.706
0.714
-4.427
-9.699
-15.076
-20.525
-25.956
-31.263
-36.414
-41.446
-46.415
-51.389
-56.396
-61.457
-66.737
-72.427
-78.615
-85.232
-91.923
-98.178
-103.57
-107.668
-109.88
-109.669
-106.735
-101.326
-94.297
-86.639
-79.484
-74.085
-71.749
-74.015
-80.274
-86.983
-90.922
-88.969
-82.235
-76.764
-72.522
-63.989
-38.942
20.56
120.873
256.633
415.106
577.242
730.715
869.494
984.253
1064.18
1096.864
1069.727
982.865
845.767
668.998
469.248
261.282
59.834
-113.046
-242.196
-321.382
-352.244
-347.645
-320.302
-278.123
-229.275
-181.712
-142.186
-116.694
-104.909
-99.194
-93.207
-83.681
-71.029
-60.559
-55.444
-54.737
-56.442
-57.081
-53.872
-46.644
-35.957
-22.498
-7.322
8.629
24.681
39.853
52.986
63.546
71.305
76.198
78.546
78.685
76.904
73.698
69.659
65.224
60.717
56.36
52.272
48.586
45.452
42.985
41.231
40.205
39.924
40.388
41.593
43.512
46.059
49.118
52.578
56.31
60.204
64.162
68.058
71.791
75.293
78.496
81.369
83.904
86.088
87.927
89.451
90.683
91.666
92.452
93.084
93.612
94.092
94.578
95.133
95.815
96.661
97.71
98.987
100.515
102.313
104.396
106.765
109.426
112.383
115.637
119.193
123.051
127.206
131.649
136.367
141.347
146.575
152.035
157.708
163.572
169.605
175.782
182.079
188.466
194.912
201.38
207.834
214.236
220.545
226.722
232.724
238.512
244.044
249.281
254.185
258.718
262.844
266.529
269.737
272.44
274.607
276.211
277.229
277.639
277.423
276.565
275.055
272.884
270.048
266.544
262.377
257.553
252.083
245.98
239.263
231.954
224.077
215.66
206.737
197.339
187.505
177.274
166.686
155.784
144.613
133.218
121.644
109.939
98.148
86.32
74.501
62.736
51.07
39.549
28.214
17.106
6.267
-4.268
-14.463
-24.285
-33.706
-42.696
-51.233
-59.297
-66.869
-73.936
-80.487
-86.516
-92.018
-96.992
-101.442
-105.374
-108.795
-111.718
-114.156
-116.128
-117.65
-118.746
-119.437
-119.748
-119.707
-119.339
-118.674
-117.74
-116.568
-115.187
-113.628
-111.92
-110.095
-108.181
-106.208
-104.202
-102.192
-100.203
-98.259
-96.381
-94.592
-92.91
-91.352
-89.933
-88.666
-87.562
-86.631
-85.879
-85.311
-84.932
-84.741
-84.74
-84.925
-85.294
-85.84
-86.557
-87.437
-88.472
-89.65
-90.962
-92.394
-93.935
-95.572
-97.29
-99.075
-100.915
-102.793
-104.696
-106.609
-108.52
-110.413
-112.277
-114.098
-115.866
-117.569
-119.197
-120.74
-122.191
-123.541
-124.784
-125.915
-126.928
-127.819
-128.586
-129.226
-129.738
-130.121
-130.377
-130.504
-130.505
-130.383
-130.139
-129.776
-129.299
-128.712
-128.018
-127.223
-126.331
-125.347
-124.277
-123.125
-121.897
-120.599
-119.234
-117.808
-116.327
-114.794
-113.214
-111.591
-109.929
-108.232
-106.501
-104.74
-102.951
-101.136
-99.296
-97.433
-95.548
-93.642
-91.716
-89.769
-87.803
-85.818
-83.814
-81.789
-79.745
-77.681
-75.596
-73.491
-71.366
-69.222
-67.058
-64.877
-62.679
-60.466
-58.238
-55.999
-53.749
-51.489
-49.223
-46.951
-44.677
-42.404
-40.136
-37.876
-35.629
-33.4
-31.194
-29.014
-26.866
-24.754
-22.683
-20.656
-18.68
-16.758
-14.894
-13.095
-11.365
-9.707
-8.125
-6.623
-5.202
-3.863
-2.607
-1.433
-0.339
0.678
1.621
2.491
3.291
4.022
4.688
5.29
5.83
6.311
6.737
7.114
7.452
7.762
8.054
8.34
8.632
8.94
9.274
9.642
10.052
10.507
11.014
11.582
12.225
12.959
13.795
14.74
15.791
16.941
18.172
19.455
20.762
22.06
23.324
24.538
25.701
26.821
27.913
28.993
30.064
31.109
32.118
33.082
34.003
34.893
35.783
36.717
37.75
38.947
40.351
41.992
43.861
45.915
48.089
50.29
52.453
54.54
56.513
58.341
59.986
61.398
62.523
63.307
63.678
63.552
62.865
61.565
59.648
57.145
54.14
50.773
47.155
43.389
39.571
35.763
32.064
28.596
25.369
22.313
19.284
16.012
12.304
8.046
3.02
-2.905
-9.632
-16.932
-24.163
-30.357
-34.746
-36.591
-35.177
-30.278
-22.081
-11.156
1.098
12.934
22.685
28.285
27.867
20.418
5.322
-17.215
-45.851
-79.219
-114.139
-145.023
-167.296
-176.579
-172.061
-157.888
-134.182
-99.136
-47.513
31.619
140.566
276.841
434.682
598.437
755.478
890.675
984.722
1026.652
1007.872
930.042
805.583
644.607
460.672
266.355
72.965
-99.581
-234.662
-325.473
-371.224
-383.923
-378.752
-360.196
-332.815
-300.06
-262.143
-227.604
-201.409
-180.707
-164.869
-150.279
-135.332
-124.211
-118.559
-118.616
-123.213
-128.909
-133.382
-135.125
-133.43
-128.617
-120.979
-111.05
-99.702
-87.58
-75.517
-64.611
-55.409
-48.129
-42.823
-39.166
-36.786
-35.382
-34.487
-33.542
-32.224
-30.352
-27.855
-24.822
-21.301
-17.312
-12.936
-8.27
-3.393
1.629
6.752
11.955
17.181
22.35
27.377
32.173
36.687
40.895
44.786
48.364
51.642
54.639
57.392
59.942
62.325
64.572
66.712
68.771
70.787
72.802
74.859
77.004
79.277
81.714
84.348
87.21
90.324
93.712
97.388
101.358
105.636
110.235
115.171
120.463
126.119
132.139
138.52
145.251
152.307
159.657
167.25
175.027
182.945
190.965
199.056
207.205
215.389
223.586
231.78
239.937
248.024
256.018
263.878
271.573
279.094
286.441
293.645
300.751
307.765
314.674
321.445
328.006
334.282
340.186
345.599
350.428
354.596
358.025
360.67
362.487
363.403
363.343
362.204
359.862
356.248
351.329
345.085
337.562
328.824
318.967
308.146
296.496
284.13
271.157
257.655
243.7
229.398
214.857
200.196
185.568
171.088
156.853
142.959
129.456
116.371
103.71
91.426
79.484
67.877
56.601
45.676
35.129
24.97
15.21
5.864
-3.076
-11.612
-19.743
-27.479
-34.814
-41.728
-48.199
-54.184
-59.645
-64.565
-68.933
-72.752
-76.034
-78.791
-81.043
-82.82
-84.147
-85.05
-85.552
-85.674
-85.442
-84.886
-84.041
-82.942
-81.627
-80.132
-78.489
-76.732
-74.889
-72.988
-71.054
-69.108
-67.17
-65.262
-63.404
-61.617
-59.92
-58.33
-56.865
-55.537
-54.362
-53.349
-52.507
-51.84
-51.355
-51.053
-50.937
-51.005
-51.258
-51.693
-52.307
-53.094
-54.051
-55.17
-56.445
-57.868
-59.431
-61.124
-62.94
-64.868
-66.9
-69.026
-71.237
-73.526
-75.884
-78.303
-80.774
-83.291
-85.845
-88.431
-91.042
-93.671
-96.314
-98.967
-101.626
-104.287
-106.95
-109.612
-112.272
-114.93
-117.584
-120.236
-122.886
-125.535
-128.183
-130.832
-133.484
-136.142
-138.808
-141.485
-144.174
-146.88
-149.604
-152.349
-155.117
-157.911
-160.732
-163.583
-166.465
-169.379
-172.327
-175.31
-178.327
-181.38
-184.466
-187.586
-190.738
-193.92
-197.131
-200.368
-203.628
-206.909
-210.209
-213.524
-216.851
-220.186
-223.527
-226.868
-230.207
-233.537
-236.856
-240.157
-243.437
-246.691
-249.913
-253.1
-256.248
-259.352
-262.408
-265.414
-268.365
-271.258
-274.09
-276.859
-279.561
-282.195
-284.758
-287.25
-289.669
-292.014
-294.284
-296.478
-298.597
-300.64
-302.606
-304.496
-306.31
-308.049
-309.712
-311.301
-312.816
-314.26
-315.632
-316.935
-318.17
-319.336
-320.435
-321.466
-322.429
-323.321
-324.139
-324.88
-325.543
-326.122
-326.616
-327.019
-327.33
-327.546
-327.665
-327.684
-327.601
-327.409
-327.105
-326.68
-326.128
-325.442
-324.611
-323.629
-322.483
-321.166
-319.671
-317.991
-316.117
-314.038
-311.739
-309.209
-306.448
-303.458
-300.245
-296.824
-293.212
-289.437
-285.537
-281.546
-277.499
-273.422
-269.334
-265.251
-261.187
-257.158
-253.186
-249.278
-245.423
-241.6
-237.778
-233.924
-229.998
-225.946
-221.692
-217.17
-212.331
-207.145
-201.606
-195.721
-189.519
-183.029
-176.284
-169.35
-162.315
-155.287
-148.396
-141.754
-135.459
-129.636
-124.426
-119.958
-116.34
-113.632
-111.861
-111.034
-111.131
-112.137
-114.025
-116.708
-120.072
-123.977
-128.25
-132.796
-137.55
-142.39
-147.248
-152.111
-157.024
-162.201
-167.869
-174.148
-181.134
-188.864
-197.146
-205.713
-214.112
-221.573
-227.334
-230.648
-230.872
-227.721
-221.358
-212.201
-200.993
-188.988
-177.783
-169.249
-165.114
-166.564
-174.057
-187.551
-206.612
-229.816
-254.341
-276.36
-291.651
-295.861
-285.108
-255.806
-204.254
-129.364
-34.258
76.463
196.882
