Name,Aleksandre Beruashvili
Date of Birth,"Dec 20, 1998"
Recorded Date,2024-05-23 23:02:32 +0400
Classification,Sinus Rhythm
Symptoms,
Software Version,1.90
Device,"Watch7,2"
Sample Rate,512 hertz


Lead,Lead I
Unit,µV

-37.124
-52.029
-65.294
-76.773
-86.295
-93.68
-98.757
-101.35
-101.336
-98.688
-93.412
-85.579
-75.357
-62.959
-48.697
-32.963
-16.098
1.573
19.725
38.091
56.364
74.212
91.31
107.293
121.81
134.592
145.399
154.063
160.522
164.751
166.809
166.826
164.89
161.11
155.627
148.545
140.01
130.194
119.252
107.424
94.992
82.199
69.294
56.48
43.889
31.66
19.904
8.708
-1.8
-11.528
-20.427
-28.423
-35.461
-41.484
-46.407
-50.221
-52.99
-54.767
-55.631
-55.645
-54.833
-53.265
-51.037
-48.25
-45.045
-41.529
-37.758
-33.814
-29.777
-25.737
-21.822
-18.106
-14.609
-11.354
-8.347
-5.6
-3.144
-0.966
0.987
2.773
4.475
6.147
7.802
9.466
11.161
12.913
14.764
16.729
18.79
20.937
23.16
25.447
27.797
30.187
32.567
34.889
37.098
39.154
41.038
42.728
44.205
45.456
46.47
47.245
47.795
48.125
48.241
48.145
47.839
47.332
46.641
45.781
44.767
43.616
42.338
40.946
39.452
37.866
36.197
34.451
32.631
30.743
28.797
26.802
24.766
22.701
20.613
18.513
16.41
14.311
12.222
10.15
8.097
6.069
4.067
2.095
0.154
-1.754
-3.628
-5.468
-7.274
-9.047
-10.789
-12.501
-14.186
-15.845
-17.482
-19.098
-20.697
-22.281
-23.851
-25.41
-26.961
-28.506
-30.047
-31.587
-33.129
-34.674
-36.225
-37.784
-39.353
-40.931
-42.519
-44.118
-45.724
-47.338
-48.956
-50.577
-52.197
-53.812
-55.419
-57.012
-58.588
-60.142
-61.666
-63.155
-64.604
-66.005
-67.352
-68.639
-69.858
-71.003
-72.067
-73.044
-73.926
-74.707
-75.382
-75.942
-76.383
-76.699
-76.883
-76.932
-76.84
-76.604
-76.22
-75.685
-74.997
-74.153
-73.153
-71.995
-70.679
-69.205
-67.573
-65.785
-63.842
-61.747
-59.501
-57.109
-54.574
-51.898
-49.087
-46.146
-43.079
-39.891
-36.589
-33.179
-29.668
-26.061
-22.368
-18.593
-14.747
-10.836
-6.869
-2.854
1.199
5.282
9.385
13.498
17.611
21.714
25.795
29.845
33.853
37.807
41.697
45.51
49.236
52.864
56.381
59.776
63.037
66.153
69.113
71.907
74.525
76.956
79.192
81.224
83.045
84.648
86.025
87.171
88.079
88.747
89.172
89.351
89.284
88.972
88.418
87.625
86.598
85.345
83.872
82.187
80.3
78.223
75.965
73.541
70.962
68.244
65.403
62.454
59.414
56.299
53.126
49.908
46.662
43.4
40.133
36.871
33.623
30.401
27.211
24.064
20.965
17.919
14.931
12.005
9.141
6.338
3.592
0.897
-1.752
-4.358
-6.922
-9.446
-11.932
-14.381
-16.793
-19.167
-21.505
-23.808
-26.089
-28.355
-30.605
-32.838
-35.052
-37.239
-39.391
-41.492
-43.513
-45.43
-47.227
-48.883
-50.384
-51.717
-52.86
-53.798
-54.528
-55.047
-55.355
-55.445
-55.285
-54.867
-54.239
-53.467
-52.603
-51.763
-51.11
-50.881
-51.468
-53.25
-56.408
-61.022
-67.176
-74.675
-83.052
-91.672
-99.417
-104.999
-107.61
-106.76
-101.789
-92.746
-80.508
-65.814
-51.425
-40.825
-35.034
-35.607
-42.105
-51.355
-63.483
-78.076
-95.382
-119.656
-152.267
-191.04
-227.955
-246.006
-224.807
-150.225
-22.343
145.807
330.698
510.989
679.093
833.156
974.464
1099.297
1190.815
1229.505
1200.33
1098.884
933.522
722.049
486.237
245.643
21.352
-170.203
-320.212
-422.151
-480.477
-501.679
-488.052
-447.81
-386.875
-315.701
-253.286
-209.247
-187.963
-185.65
-187.219
-184.893
-176.518
-163.555
-154.432
-152.666
-156.811
-164.859
-172.144
-175.657
-175.49
-172.072
-166.222
-158.945
-150.8
-142.333
-134.623
-128.761
-125.193
-123.977
-124.852
-127.299
-130.892
-135.268
-139.875
-144.131
-147.68
-150.343
-152.105
-153.049
-153.202
-152.533
-151.021
-148.719
-145.712
-142.113
-138.065
-133.68
-129.067
-124.365
-119.714
-115.219
-110.953
-106.941
-103.16
-99.602
-96.262
-93.135
-90.233
-87.547
-85.044
-82.68
-80.394
-78.12
-75.804
-73.385
-70.792
-67.966
-64.86
-61.435
-57.676
-53.563
-49.066
-44.157
-38.802
-32.966
-26.627
-19.77
-12.376
-4.431
4.082
13.181
22.87
33.14
43.978
55.364
67.275
79.684
92.541
105.78
119.333
133.134
147.131
161.299
175.601
189.991
204.425
218.846
233.222
247.548
261.806
275.965
290.001
303.885
317.63
331.291
344.904
358.481
371.995
385.362
398.5
411.343
423.804
435.785
447.148
457.717
467.362
476.005
483.58
490.018
495.189
498.899
500.987
501.342
499.9
496.651
491.585
484.69
476.005
465.623
453.701
440.424
425.918
410.233
393.393
375.456
356.564
336.924
316.731
296.149
275.329
254.428
233.638
213.139
193.055
173.441
154.293
135.609
117.451
99.948
83.263
67.514
52.742
38.957
26.16
14.349
3.5
-6.471
-15.709
-24.338
-32.431
-40.014
-47.068
-53.603
-59.672
-65.36
-70.777
-76.006
-81.094
-86.086
-91.03
-95.952
-100.853
-105.682
-110.334
-114.737
-118.855
-122.678
-126.225
-129.5
-132.49
-135.187
-137.586
-139.685
-141.49
-143.002
-144.212
-145.132
-145.788
-146.227
-146.522
-146.726
-146.876
-146.997
-147.107
-147.219
-147.351
-147.505
-147.676
-147.86
-148.056
-148.265
-148.492
-148.736
-148.989
-149.241
-149.476
-149.682
-149.85
-149.971
-150.037
-150.042
-149.982
-149.854
-149.662
-149.407
-149.088
-148.704
-148.252
-147.732
-147.143
-146.484
-145.754
-144.952
-144.081
-143.14
-142.135
-141.068
-139.942
-138.764
-137.538
-136.272
-134.97
-133.641
-132.29
-130.927
-129.557
-128.19
-126.832
-125.491
-124.175
-122.889
-121.642
-120.439
-119.287
-118.189
-117.15
-116.173
-115.262
-114.419
-113.647
-112.946
-112.318
-111.763
-111.283
-110.877
-110.543
-110.281
-110.089
-109.964
-109.903
-109.902
-109.957
-110.064
-110.217
-110.414
-110.647
-110.913
-111.206
-111.523
-111.857
-112.204
-112.559
-112.918
-113.277
-113.631
-113.977
-114.31
-114.63
-114.932
-115.215
-115.477
-115.719
-115.938
-116.134
-116.306
-116.454
-116.578
-116.679
-116.755
-116.807
-116.837
-116.844
-116.831
-116.797
-116.745
-116.673
-116.583
-116.474
-116.346
-116.197
-116.024
-115.827
-115.601
-115.346
-115.058
-114.735
-114.373
-113.967
-113.514
-113.008
-112.443
-111.814
-111.112
-110.33
-109.462
-108.498
-107.434
-106.262
-104.975
-103.566
-102.031
-100.363
-98.557
-96.607
-94.506
-92.251
-89.838
-87.264
-84.529
-81.633
-78.578
-75.367
-72.009
-68.509
-64.873
-61.108
-57.223
-53.226
-49.127
-44.934
-40.654
-36.299
-31.885
-27.427
-22.947
-18.467
-14.005
-9.587
-5.235
-0.974
3.174
7.193
11.072
14.796
18.345
21.698
24.825
27.706
30.333
32.693
34.773
36.575
38.106
39.393
40.484
41.408
42.18
42.804
43.269
43.567
43.697
43.65
43.411
42.969
42.309
41.432
40.36
39.08
37.551
35.7
33.41
30.599
27.23
23.266
18.691
13.516
7.765
1.508
-5.13
-12.058
-19.196
-26.482
-33.887
-41.326
-48.659
-55.72
-62.292
-68.177
-73.218
-77.247
-80.092
-81.661
-81.919
-80.911
-78.787
-75.656
-71.593
-66.693
-61.04
-54.765
-48.061
-41.129
-34.181
-27.472
-21.259
-15.814
-11.44
-8.33
-6.582
-6.225
-7.17
-9.365
-12.786
-17.357
-22.986
-29.541
-36.868
-44.869
-53.488
-62.613
-72.099
-81.697
-91.135
-100.399
-109.546
-118.676
-127.977
-137.341
-146.659
-156.249
-166.353
-176.779
-187.247
-196.985
-205.024
-211.287
-215.68
-217.452
-216.218
-212.151
-205.753
-198.658
-192.967
-189.704
-189.813
-195.037
-205.153
-217.25
-228.347
-234.313
-233.883
-232.431
-232.281
-229.216
-213.147
-165.609
-72.221
66.893
243.233
440.292
637.42
821.193
977.293
1088.413
1143.47
1133.64
1059.685
935.617
775.96
594.182
400.737
201.157
5.601
-171.186
-315.042
-412.892
-461.375
-465.072
-430.959
-371.953
-300.857
-230.536
-173.234
-133.3
-108.795
-92.461
-77.548
-62.306
-48.299
-40.358
-41.054
-48.585
-60.091
-71.301
-78.506
-80.781
-78.242
-71.409
-61.465
-49.598
-36.752
-24.332
-14.009
-6.647
-2.607
-1.945
-4.185
-8.828
-15.45
-23.353
-31.713
-39.965
-47.754
-54.913
-61.469
-67.388
-72.567
-76.933
-80.467
-83.167
-85.043
-86.105
-86.344
-85.781
-84.515
-82.69
-80.476
-78.044
-75.501
-72.902
-70.299
-67.731
-65.236
-62.86
-60.613
-58.482
-56.456
-54.523
-52.669
-50.883
-49.122
-47.32
-45.405
-43.304
-40.96
-38.341
-35.417
-32.162
-28.554
-24.574
-20.217
-15.487
-10.384
-4.905
0.953
7.195
13.814
20.792
28.113
35.754
43.698
51.925
60.414
69.143
78.089
87.234
96.558
106.039
115.649
125.354
135.115
144.892
154.642
164.32
173.879
183.272
192.453
201.381
210.018
218.321
226.249
233.753
240.783
247.295
253.258
258.636
263.408
267.56
271.091
274.017
276.363
278.135
279.335
279.956
279.969
279.356
278.099
276.173
273.579
270.313
266.369
261.757
256.484
250.529
243.869
236.446
228.187
219.072
209.107
198.321
186.797
174.625
161.916
148.82
135.459
121.941
108.379
94.849
81.433
68.247
55.418
43.103
31.489
20.703
10.836
1.961
-5.92
-12.83
-18.825
-24.028
-28.541
-32.435
-35.777
-38.601
-40.934
-42.842
-44.393
-45.671
-46.797
-47.858
-48.917
-50.041
-51.244
-52.514
-53.818
-55.067
-56.184
-57.129
-57.874
-58.415
-58.762
-58.909
-58.855
-58.606
-58.147
-57.468
-56.569
-55.438
-54.089
-52.551
-50.863
-49.087
-47.285
-45.496
-43.753
-42.078
-40.482
-38.978
-37.572
-36.256
-35.032
-33.902
-32.868
-31.939
-31.116
-30.393
-29.764
-29.216
-28.735
-28.31
-27.932
-27.59
-27.279
-26.992
-26.726
-26.482
-26.258
-26.051
-25.859
-25.676
-25.497
-25.317
-25.133
-24.939
-24.732
-24.507
-24.263
-23.999
-23.715
-23.409
-23.081
-22.732
-22.363
-21.976
-21.572
-21.153
-20.724
-20.286
-19.844
-19.403
-18.968
-18.542
-18.13
-17.738
-17.369
-17.029
-16.72
-16.447
-16.212
-16.02
-15.871
-15.771
-15.72
-15.722
-15.778
-15.89
-16.06
-16.289
-16.577
-16.925
-17.334
-17.802
-18.329
-18.915
-19.558
-20.257
-21.01
-21.814
-22.666
-23.563
-24.501
-25.476
-26.483
-27.517
-28.573
-29.647
-30.733
-31.827
-32.922
-34.014
-35.098
-36.168
-37.222
-38.253
-39.257
-40.232
-41.172
-42.076
-42.94
-43.76
-44.535
-45.262
-45.937
-46.56
-47.127
-47.636
-48.087
-48.477
-48.805
-49.071
-49.274
-49.416
-49.496
-49.515
-49.474
-49.375
-49.221
-49.012
-48.751
-48.442
-48.085
-47.685
-47.245
-46.766
-46.253
-45.707
-45.132
-44.53
-43.903
-43.254
-42.584
-41.897
-41.195
-40.48
-39.755
-39.023
-38.288
-37.551
-36.817
-36.088
-35.368
-34.659
-33.966
-33.29
-32.635
-32.004
-31.399
-30.823
-30.279
-29.769
-29.296
-28.862
-28.471
-28.123
-27.822
-27.57
-27.37
-27.225
-27.137
-27.11
-27.146
-27.248
-27.419
-27.663
-27.981
-28.375
-28.847
-29.397
-30.026
-30.735
-31.522
-32.386
-33.326
-34.34
-35.425
-36.578
-37.797
-39.077
-40.413
-41.802
-43.237
-44.713
-46.222
-47.758
-49.312
-50.877
-52.444
-54.004
-55.546
-57.061
-58.537
-59.962
-61.326
-62.616
-63.819
-64.922
-65.913
-66.781
-67.513
-68.099
-68.529
-68.793
-68.882
-68.79
-68.509
-68.032
-67.355
-66.473
-65.384
-64.087
-62.58
-60.865
-58.946
-56.829
-54.523
-52.039
-49.389
-46.584
-43.641
-40.58
-37.421
-34.183
-30.882
-27.536
-24.165
-20.791
-17.44
-14.133
-10.89
-7.73
-4.674
-1.746
1.033
3.642
6.076
8.334
10.408
12.281
13.921
15.299
16.398
17.205
17.71
17.905
17.782
17.349
16.647
15.727
14.643
13.451
12.166
10.803
9.389
7.959
6.601
5.424
4.496
3.866
3.565
3.562
3.862
4.506
5.332
6.044
6.344
5.868
4.465
2.278
-0.719
-4.813
-10.095
-16.417
-23.469
-30.512
-37.073
-43.356
-49.308
-54.415
-58.271
-60.653
-61.667
-62.454
-64.314
-67.634
-72.873
-80.924
-92.455
-107.95
-127.683
-148.937
-166.217
-175.096
-170.884
-152.191
-124.243
-89.682
-48.16
4.542
83.631
201.614
362.222
562.808
782.969
996.247
1179.973
1309.818
1372.979
1364.399
1279.233
1122.833
904.777
641.044
361.364
97.951
-118.689
-268.482
-353.886
-389.892
-397.309
-391.362
-369.18
-325.655
-258.34
-174.338
-98.642
-49.843
-35.441
-51.426
-77.177
-97.767
-108.209
-109.157
-109.037
-112.108
-116.493
-119.162
-116.222
-106.511
-91.556
-73.225
-53.4
-33.387
-14.277
2.951
17.861
30.327
40.517
48.813
55.441
60.641
64.827
68.312
71.319
74.017
76.392
78.383
79.982
81.153
81.857
82.091
81.84
81.114
79.973
78.518
76.892
75.235
73.652
72.208
70.918
69.793
68.858
68.138
67.656
67.426
67.445
67.723
68.29
69.157
70.314
71.704
73.224
74.793
76.352
77.866
79.328
80.736
82.089
83.408
84.732
86.103
87.569
89.159
90.895
92.811
94.955
97.395
100.208
103.447
107.148
111.335
116.015
121.187
126.832
132.9
139.341
146.106
153.153
160.458
167.988
175.704
183.572
191.548
199.6
207.724
215.919
224.193
232.581
241.118
249.857
258.881
268.236
277.946
288.021
298.431
309.156
320.159
331.368
342.708
354.083
365.351
376.367
386.966
396.927
406.044
414.106
420.871
426.165
429.847
431.794
431.941
430.237
426.658
421.232
414.014
405.073
394.535
382.544
369.275
354.975
339.873
324.19
308.172
292.013
275.881
259.937
244.3
229.062
214.309
200.09
186.433
173.374
160.912
149.027
137.682
126.792
116.29
106.128
96.249
86.625
77.238
68.072
59.133
50.448
42.037
33.926
26.147
18.717
11.663
5.02
-1.178
-6.882
-12.058
-16.69
-20.765
-24.282
-27.247
-29.672
-31.579
-33.004
-33.979
-34.536
-34.709
-34.524
-34.013
-33.212
-32.154
-30.877
-29.413
-27.792
-26.044
-24.196
-22.274
-20.303
-18.304
-16.294
-14.292
-12.316
-10.385
-8.516
-6.726
-5.029
-3.437
-1.964
-0.62
0.588
1.652
2.57
3.337
3.952
4.413
4.721
4.876
4.88
4.736
4.444
4.009
3.432
2.717
1.865
0.88
-0.237
-1.483
-2.858
-4.359
-5.985
-7.735
-9.608
-11.603
-13.72
-15.957
-18.315
-20.792
-23.388
-26.102
-28.933
-31.88
-34.943
-38.121
-41.411
-44.814
-48.327
-51.948
-55.675
-59.506
-63.436
-67.46
-71.573
-75.769
-80.039
-84.376
-88.77
-93.211
-97.687
-102.186
-106.695
-111.2
-115.687
-120.14
-124.543
-128.882
-133.139
-137.299
-141.345
-145.261
-149.032
-152.642
-156.077
-159.324
-162.369
-165.199
-167.805
-170.175
-172.3
-174.172
-175.785
-177.132
-178.21
-179.018
-179.554
-179.821
-179.82
-179.558
-179.04
-178.276
-177.275
-176.049
-174.612
-172.978
-171.163
-169.186
-167.064
-164.818
-162.467
-160.034
-157.54
-155.006
-152.454
-149.906
-147.382
-144.904
-142.492
-140.166
-137.945
-135.847
-133.89
-132.09
-130.463
-129.024
-127.784
-126.756
-125.949
-125.371
-125.029
-124.928
-125.072
-125.463
-126.1
-126.982
-128.106
-129.468
-131.062
-132.879
-134.91
-137.144
-139.571
-142.179
-144.953
-147.882
-150.951
-154.148
-157.459
-160.871
-164.372
-167.947
-171.583
-175.267
-178.987
-182.73
-186.484
-190.236
-193.978
-197.697
-201.384
-205.031
-208.63
-212.173
-215.653
-219.064
-222.402
-225.66
-228.835
-231.924
-234.926
-237.838
-240.662
-243.397
-246.043
-248.6
-251.07
-253.451
-255.742
-257.94
-260.041
-262.04
-263.933
-265.717
-267.387
-268.939
-270.369
-271.675
-272.856
-273.907
-274.824
-275.603
-276.236
-276.713
-277.028
-277.171
-277.131
-276.899
-276.461
-275.809
-274.934
-273.828
-272.48
-270.876
-268.996
-266.83
-264.375
-261.633
-258.612
-255.328
-251.802
-248.067
-244.169
-240.151
-236.054
-231.915
-227.758
-223.609
-219.487
-215.413
-211.412
-207.492
-203.636
-199.82
-196.008
-192.155
-188.218
-184.133
-179.818
-175.204
-170.233
-164.862
-159.072
-152.863
-146.255
-139.291
-132.025
-124.541
-116.961
-109.433
-102.125
-95.197
-88.789
-83.032
-78.069
-74.025
-71.006
-69.122
-68.451
-69.032
-70.853
-73.846
-77.906
-82.895
-88.649
-94.941
-101.489
-108.125
-114.829
-121.717
-128.991
-136.794
-145.144
-154.005
-163.379
-173
-182.336
-190.756
-197.504
-202.071
-204.354
-204.421
-202.348
-198.687
-194.391
-190.343
-187.481
-186.343
-186.904
-189.284
-193.884
-200.47
-208.567
-217.959
-228.301
-240.067
-252.793
-263.649
-269.795
-268.711
-261.968
-255.256
-249.061
-239.214
-213.156
-152.318
-51.117
87.068
249.217
414.361
574.339
725.858
865.144
987.611
1076.886
1113.652
1085.34
989.504
834.629
636.177
413.084
184.087
-29.868
-207.302
-333.851
-405.753
-431.116
-426.917
-409.904
-388.298
-363.232
-332.086
-291.432
-243.344
-193.448
-147.051
-109.349
-82.729
-66.477
-58.94
-58.027
-61.461
-67.284
-73.908
-79.364
-81.773
-80.355
-75.056
-66.267
-54.865
-41.764
-27.72
-13.887
-1.558
8.621
16.436
21.973
25.637
27.819
28.84
29.235
29.651
30.463
31.848
33.841
36.322
39.22
42.515
46.126
49.934
53.851
57.806
61.755
65.689
69.559
73.287
76.798
80.009
82.874
85.38
87.524
89.314
90.768
91.913
92.785
93.43
93.893
94.213
94.426
94.569
94.686
94.822
95.025
95.341
95.806
96.456
97.324
98.44
99.837
101.541
103.575
105.961
108.723
111.879
115.446
119.435
123.844
128.673
133.924
139.599
145.702
152.23
159.163
166.485
174.176
182.204
190.529
199.092
207.808
216.61
225.445
234.269
243.054
251.769
260.375
268.841
277.144
285.262
293.179
300.866
308.269
315.371
322.184
328.75
335.161
341.472
347.698
353.843
359.903
365.854
371.668
377.275
382.547
387.372
391.649
395.303
398.299
400.549
401.913
402.212
401.24
398.834
394.894
389.321
382.003
372.883
361.948
349.265
335.019
319.388
302.52
284.56
265.64
245.95
225.763
205.385
185.104
165.181
145.833
127.286
109.813
93.629
78.874
65.612
53.79
43.353
34.275
26.516
20.006
14.628
10.192
6.482
3.337
0.612
-1.828
-4.126
-6.474
-9.029
-11.886
-15.088
-18.627
-22.49
-26.687
-31.213
-36.021
-41.038
-46.162
-51.271
-56.302
-61.209
-65.939
-70.448
-74.672
-78.556
-82.09
-85.283
-88.149
-90.704
-92.956
-94.917
-96.627
-98.138
-99.506
-100.793
-102.036
-103.259
-104.49
-105.747
-107.049
-108.409
-109.825
-111.285
-112.786
-114.324
-115.897
-117.502
-119.127
-120.754
-122.367
-123.949
-125.484
-126.958
-128.357
-129.668
-130.88
-131.985
-132.976
-133.847
-134.59
-135.196
-135.655
-135.956
-136.09
-136.046
-135.817
-135.393
-134.767
-133.936
-132.893
-131.639
-130.17
-128.486
-126.589
-124.479
-122.161
-119.638
-116.916
-114.003
-110.908
-107.641
-104.213
-100.637
-96.926
-93.094
-89.155
-85.124
-81.016
-76.846
-72.629
-68.382
-64.12
-59.86
-55.619
-51.413
-47.258
-43.171
-39.166
-35.259
-31.463
-27.791
-24.256
-20.867
-17.636
-14.569
-11.674
-8.956
-6.421
-4.069
-1.903
0.077
1.874
3.49
4.929
6.196
7.297
8.24
9.032
9.681
10.196
10.587
10.862
11.033
11.109
11.101
11.019
10.875
10.68
10.443
10.174
9.885
9.583
9.278
8.979
8.691
8.422
8.177
7.962
7.778
7.63
7.517
7.44
7.399
7.39
7.412
7.462
7.533
7.623
7.725
7.834
7.944
8.049
8.142
8.218
8.27
8.291
8.277
8.22
8.117
7.962
7.75
7.477
7.14
6.734
6.259
5.71
5.088
4.391
3.618
2.772
1.854
0.867
-0.188
-1.304
-2.478
-3.705
-4.978
-6.291
-7.637
-9.01
-10.402
-11.806
-13.214
-14.618
-16.013
-17.389
-18.741
-20.062
-21.346
-22.587
-23.78
-24.92
-26.004
-27.027
-27.985
-28.877
-29.698
-30.446
-31.119
-31.714
-32.23
-32.666
-33.021
-33.294
-33.485
-33.593
-33.619
-33.561
-33.421
-33.198
-32.892
-32.503
-32.031
-31.476
-30.84
-30.122
-29.323
-28.444
-27.484
-26.445
-25.327
-24.13
-22.854
-21.499
-20.067
-18.559
-16.977
-15.321
-13.597
-11.807
-9.959
-8.06
-6.118
-4.144
-2.146
-0.137
1.871
3.866
5.837
7.774
9.665
11.497
13.256
14.926
16.492
17.941
19.258
20.432
21.45
22.301
22.984
23.496
23.833
23.985
23.93
23.647
23.122
22.343
21.302
20
18.442
16.644
14.644
12.483
10.2
7.831
5.4
2.931
0.464
-1.946
-4.228
-6.31
-8.139
-9.665
-10.842
-11.664
-12.149
-12.367
-12.436
-12.46
-12.542
-12.803
-13.376
-14.404
-16.045
-18.416
-21.665
-26.033
-31.693
-38.664
-46.754
-55.468
-64.231
-72.555
-79.841
-85.285
-88.249
-88.491
-86.481
-83.446
-80.656
-79.252
-80.377
-85.281
-95.257
-109.464
-124.223
-135.567
-139.182
-134.65
-126.171
-112.978
-90.712
-49.829
24.616
137.773
285.208
455.848
631.884
799.815
951.494
1078.824
1172.337
1220.304
1209.441
1129.89
981.565
772.497
520.375
253.9
3.566
-202.516
-345.704
-425.889
-454.179
-445.51
-414.131
-366.364
-307.001
-244.761
-187.512
-143.102
-113.997
-94.088
-78.545
-64.974
-53.54
-49.24
-54.53
-67.448
-85.203
-103.197
-117.211
-126.047
-129.668
-128.461
-123.57
-116.197
-107.161
-97.696
-89.402
-83.035
-78.907
-77.118
-77.158
-78.495
-80.741
-83.252
-85.356
-86.716
-87.136
-86.568
-85.164
-82.995
-80.108
-76.632
-72.682
-68.35
-63.732
-58.873
-53.811
-48.619
-43.387
-38.201
-33.13
-28.202
-23.42
-18.786
-14.304
-9.99
-5.866
-1.941
1.781
5.308
8.664
11.873
14.941
17.877
20.69
23.362
25.885
28.235
30.353
32.208
33.813
35.207
36.488
37.775
39.149
40.677
42.409
44.377
46.644
49.275
52.314
55.835
59.908
64.614
70.085
76.41
83.61
91.658
100.457
109.861
119.768
130.09
140.737
151.646
162.732
173.911
185.127
196.308
207.364
218.187
228.622
238.531
247.84
256.504
264.529
271.957
278.801
285.062
290.755
295.868
300.39
304.309
307.584
310.175
312.064
313.251
313.762
313.625
312.842
311.405
309.294
306.473
302.925
298.64
293.601
287.81
281.279
274.029
266.1
257.543
248.4
238.711
228.515
217.847
206.753
195.282
183.487
171.422
159.144
146.71
134.18
121.613
109.064
96.585
84.223
72.021
60.022
48.269
36.801
25.656
14.871
4.477
-5.494
-15.014
-24.06
-32.611
-40.653
-48.175
-55.168
-61.628
-67.555
-72.952
-77.823
-82.178
-86.028
-89.387
-92.27
-94.696
-96.685
-98.261
-99.446
-100.267
-100.75
-100.922
-100.812
-100.446
-99.854
-99.063
-98.102
-96.997
-95.773
-94.458
-93.075
-91.648
-90.199
-88.749
-87.317
-85.92
-84.573
-83.29
-82.081
-80.957
-79.926
-78.992
-78.16
-77.433
-76.812
-76.298
-75.888
-75.58
-75.369
-75.251
-75.22
-75.268
-75.39
-75.576
-75.819
-76.111
-76.443
-76.808
-77.196
-77.6
-78.012
-78.424
-78.829
-79.22
-79.592
-79.938
-80.255
-80.538
-80.784
-80.992
-81.159
-81.284
-81.368
-81.411
-81.414
-81.377
-81.304
-81.196
-81.058
-80.891
-80.701
-80.49
-80.264
-80.026
-79.781
-79.532
-79.284
-79.041
-78.805
-78.58
-78.371
-78.179
-78.007
-77.859
-77.736
-77.64
-77.572
-77.532
-77.521
-77.54
-77.586
-77.659
-77.759
-77.883
-78.03
-78.198
-78.385
-78.59
-78.809
-79.041
-79.283
-79.533
-79.787
-80.044
-80.302
-80.557
-80.81
-81.057
-81.298
-81.531
-81.757
-81.972
-82.178
-82.372
-82.555
-82.727
-82.886
-83.034
-83.17
-83.296
-83.412
-83.52
-83.621
-83.718
-83.81
-83.9
-83.988
-84.076
-84.165
-84.256
-84.348
-84.444
-84.543
-84.646
-84.753
-84.864
-84.978
-85.095
-85.213
-85.332
-85.45
-85.565
-85.676
-85.782
-85.883
-85.978
-86.067
-86.149
-86.224
-86.294
-86.358
-86.415
-86.467
-86.512
-86.552
-86.587
-86.618
-86.646
-86.674
-86.703
-86.737
-86.779
-86.833
-86.903
-86.994
-87.109
-87.254
-87.436
-87.659
-87.929
-88.253
-88.637
-89.086
-89.608
-90.207
-90.887
-91.65
-92.499
-93.434
-94.457
-95.562
-96.749
-98.014
-99.355
-100.769
-102.252
-103.802
-105.413
-107.083
-108.81
-110.586
-112.402
-114.245
-116.102
-117.958
-119.798
-121.604
-123.356
-125.033
-126.621
-128.108
-129.48
-130.721
-131.81
-132.72
-133.431
-133.936
-134.229
-134.307
-134.171
-133.829
-133.306
-132.643
-131.882
-131.049
-130.15
-129.174
-128.115
-126.974
-125.754
-124.461
-123.076
-121.577
-119.954
-118.209
-116.34
-114.322
-112.097
-109.565
-106.649
-103.314
-99.567
-95.448
-90.996
-86.261
-81.311
-76.239
-71.175
-66.231
-61.481
-56.974
-52.765
-48.948
-45.672
-43.129
-41.47
-40.79
-41.142
-42.537
-44.962
-48.368
-52.647
-57.647
-63.201
-69.161
-75.419
-81.884
-88.43
-94.891
-101.066
-106.687
-111.496
-115.372
-118.293
-120.383
-121.918
-123.121
-124.181
-125.406
-127.075
-129.138
-131.24
-132.665
-132.512
-130.311
-125.927
-119.164
-109.935
-98.579
-85.932
-73.474
-62.772
-54.698
-49.68
-48.28
-51.166
-58.832
-71.244
-87.409
-106.211
-127.242
-149.94
-172.968
-194.324
-209.911
-215.624
-210.127
-190.723
-156.483
-107.536
-38.365
52.247
163.168
293.943
434.309
576.297
716.001
845.566
961.688
1056.21
1113.165
1119.48
1063.993
944.435
769.878
555.438
321.024
88.238
-121.096
-288.807
-403.29
-464.178
-482.276
-471.226
-445.68
-412.163
-370.087
-322.026
-268.753
-216.365
-174.512
-144.209
-126.552
-119.791
-118.019
-121.615
-130.067
-140.833
-153.33
-163.933
-169.1
-168.316
-161.429
-149.105
-132.855
-113.85
-93.179
-72.435
-53.13
-36.029
-21.502
-9.63
-0.19
7.052
12.352
16.224
19.252
21.768
23.909
25.675
26.981
27.811
28.197
28.125
27.566
26.551
25.19
23.683
22.252
21.033
20.082
19.408
19
18.86
19.004
19.431
20.123
21.062
22.249
23.7
25.424
27.402
29.57
31.821
34.062
36.244
38.345
40.367
42.321
44.213
46.065
47.922
49.828
51.826
53.945
56.202
58.624
61.254
64.15
67.382
71.008
75.064
79.58
84.575
90.055
96.027
102.485
109.412
116.795
124.62
132.865
141.51
150.52
159.847
169.428
179.197
189.084
199.028
208.981
218.905
228.78
238.581
248.295
257.893
267.333
276.57
285.569
294.296
302.729
310.87
318.74
326.37
333.801
341.041
348.069
354.84
361.283
367.315
372.83
377.74
381.99
385.539
388.361
390.422
391.669
392.006
391.325
389.515
386.463
382.107
376.427
369.434
361.174
351.729
341.236
329.818
317.565
304.535
290.752
276.274
261.213
245.737
230.024
214.242
198.558
183.1
167.982
153.302
139.126
125.479
112.332
99.671
87.516
75.939
65.043
54.884
45.448
36.661
28.457
20.789
13.613
6.899
0.596
-5.338
-10.924
-16.148
-20.969
-25.368
-29.359
-33.005
-36.388
-39.55
-42.486
-45.154
-47.528
-49.606
-51.391
-52.887
-54.077
-54.953
-55.531
-55.851
-55.964
-55.902
-55.679
-55.286
-54.713
-53.97
-53.087
-52.107
-51.065
-49.983
-48.883
-47.789
-46.734
-45.744
-44.828
-43.98
-43.196
-42.475
-41.825
-41.255
-40.772
-40.373
-40.056
-39.814
-39.641
-39.532
-39.48
-39.474
-39.501
-39.553
-39.625
-39.713
-39.816
-39.929
-40.048
-40.168
-40.286
-40.401
-40.508
-40.604
-40.687
-40.754
-40.807
-40.846
-40.873
-40.889
-40.896
-40.898
-40.897
-40.896
-40.9
-40.912
-40.937
-40.979
-41.043
-41.133
-41.254
-41.411
-41.606
-41.845
-42.13
-42.465
-42.851
-43.291
-43.784
-44.331
-44.932
-45.586
-46.29
-47.041
-47.837
-48.673
-49.547
-50.453
-51.385
-52.338
-53.306
-54.281
-55.257
-56.227
-57.184
-58.119
-59.028
-59.902
-60.735
-61.521
-62.255
-62.93
-63.542
-64.087
-64.56
-64.959
-65.281
-65.524
-65.688
-65.772
-65.778
-65.706
-65.559
-65.34
-65.053
-64.701
-64.29
-63.826
-63.313
-62.759
-62.17
-61.554
-60.918
-60.269
-59.615
-58.963
-58.321
-57.695
-57.093
-56.52
-55.982
-55.485
-55.033
-54.631
-54.282
-53.99
-53.757
-53.585
-53.475
-53.427
-53.44
-53.515
-53.649
-53.839
-54.084
-54.38
-54.723
-55.109
-55.534
-55.993
-56.481
-56.993
-57.523
-58.067
-58.618
-59.172
-59.723
-60.267
-60.8
-61.319
-61.82
-62.301
-62.761
-63.198
-63.611
-64
-64.366
-64.709
-65.031
-65.333
-65.619
-65.89
-66.151
-66.405
-66.655
-66.906
-67.16
-67.423
-67.698
-67.987
-68.294
-68.622
-68.972
-69.348
-69.749
-70.179
-70.637
-71.123
-71.638
-72.178
-72.742
-73.325
-73.923
-74.531
-75.14
-75.745
-76.336
-76.905
-77.444
-77.941
-78.387
-78.771
-79.082
-79.31
-79.444
-79.472
-79.384
-79.169
-78.82
-78.327
-77.686
-76.89
-75.938
-74.83
-73.567
-72.153
-70.591
-68.886
-67.045
-65.074
-62.985
-60.787
-58.494
-56.125
-53.696
-51.226
-48.738
-46.253
-43.793
-41.378
-39.025
-36.75
-34.569
-32.497
-30.555
-28.761
-27.131
-25.685
-24.437
-23.39
-22.556
-21.936
-21.524
-21.314
-21.284
-21.403
-21.655
-22.018
-22.474
-23.005
-23.571
-24.138
-24.678
-25.16
-25.588
-25.963
-26.254
-26.428
-26.458
-26.328
-26.114
-25.909
-25.724
-25.651
-25.843
-26.508
-28.09
-30.979
-35.232
-40.853
-47.79
-55.729
-64.382
-73.249
-81.142
-86.903
-89.931
-89.818
-86.588
-80.746
-72.549
-62.576
-52.563
-44.45
-39.581
-39.154
-43.714
-52.977
-67.341
-85.755
-103.901
-117.457
-122.551
-118.069
-108.624
-96.982
-79.963
-49.182
10.425
110.638
250.99
423.371
612.262
798.391
970.26
1117.399
1226.948
1291.228
1298.555
1239.803
1117.57
936.087
709.58
461.116
213.035
-8.002
-182.012
-301.817
-368.992
-395.314
-393.055
-369.467
-329.536
-277.917
-223.2
-175.56
-142.467
-124.706
-115.52
-108.484
-100.349
-91.597
-87.143
-89.678
-97.786
-108.915
-118.894
-124.157
-123.977
-118.596
-108.57
-95.034
-79.078
-61.516
-43.6
-26.912
-12.307
-0.289
8.854
15.396
19.656
21.905
22.68
22.603
22.057
21.284
20.4
19.361
18.176
16.88
15.473
13.986
12.507
11.209
10.282
9.877
10.074
10.878
12.263
14.2
16.65
19.568
22.91
26.636
30.719
35.157
39.937
45.018
50.33
55.753
61.177
66.534
71.779
76.891
81.864
86.694
91.388
95.978
100.495
104.968
109.414
113.839
118.256
122.693
127.194
131.818
136.615
141.613
146.835
152.288
157.977
163.907
170.072
176.461
183.054
189.826
196.758
203.832
211.019
218.278
225.551
232.759
239.842
246.757
253.468
259.957
266.206
272.192
277.899
283.319
288.437
293.257
297.772
301.959
305.824
309.384
312.678
315.799
318.804
321.707
324.509
327.182
329.681
331.978
334.025
335.738
337.049
337.878
338.143
337.808
336.8
335.022
332.356
328.619
323.651
317.369
309.721
300.678
290.259
278.46
265.296
250.874
235.288
218.646
201.092
182.719
163.656
144.088
124.225
104.338
84.723
65.592
47.121
29.484
12.804
-2.767
-17.072
-30.06
-41.69
-51.928
-60.792
-68.272
-74.372
-79.171
-82.783
-85.365
-87.125
-88.214
-88.741
-88.831
-88.583
-88.117
-87.58
-87.049
-86.575
-86.214
-85.992
-85.949
-86.134
-86.537
-87.12
-87.828
-88.573
-89.304
-90.007
-90.659
-91.249
-91.764
-92.171
-92.473
-92.7
-92.871
-93.011
-93.143
-93.275
-93.445
-93.708
-94.119
-94.74
-95.619
-96.777
-98.24
-100.024
-102.142
-104.601
-107.401
-110.521
-113.947
-117.666
-121.664
-125.927
-130.435
-135.156
-140.06
-145.116
-150.294
-155.568
-160.91
-166.291
-171.686
-177.072
-182.427
-187.732
-192.967
-198.109
-203.136
-208.026
-212.761
-217.323
-221.695
-225.86
-229.807
-233.524
-237.003
-240.239
-243.228
-245.968
-248.458
-250.701
-252.702
-254.467
-256.004
-257.324
-258.437
-259.357
-260.097
-260.672
-261.097
-261.389
-261.564
-261.639
-261.629
-261.551
-261.421
-261.255
-261.068
-260.875
-260.691
-260.527
-260.396
-260.311
-260.28
-260.314
-260.419
-260.602
-260.868
-261.218
-261.656
-262.18
-262.79
-263.481
-264.248
-265.087
-265.989
-266.947
-267.949
-268.987
-270.049
-271.123
-272.196
-273.255
-274.289
-275.282
-276.223
-277.099
-277.895
-278.602
-279.206
-279.697
-280.065
-280.298
-280.39
-280.331
-280.115
-279.735
-279.185
-278.461
-277.559
-276.478
-275.216
-273.771
-272.146
-270.342
-268.361
-266.207
-263.886
-261.402
-258.763
-255.975
-253.047
-249.987
-246.805
-243.509
-240.11
-236.618
-233.044
-229.398
-225.69
-221.931
-218.13
-214.299
-210.445
-206.579
-202.71
-198.845
-194.993
-191.163
-187.361
-183.594
-179.87
-176.196
-172.577
-169.019
-165.527
-162.106
-158.76
-155.493
-152.307
-149.204
-146.186
-143.253
-140.407
-137.646
-134.971
-132.379
-129.868
-127.436
-125.079
-122.793
-120.573
-118.415
-116.314
-114.263
-112.258
-110.292
-108.359
-106.454
-104.569
-102.697
-100.831
-98.963
-97.084
-95.186
-93.26
-91.296
-89.286
-87.221
-85.093
-82.892
-80.611
-78.243
-75.78
-73.217
-70.549
-67.769
-64.877
-61.868
-58.743
-55.503
-52.148
-48.684
-45.117
-41.455
-37.709
-33.888
-30.005
-26.074
-22.108
-18.123
-14.133
-10.152
-6.196
-2.282
1.572
5.345
9.016
12.563
15.965
19.202
22.252
25.099
27.731
30.138
32.31
34.233
35.884
37.244
38.296
39.024
39.419
39.478
39.206
38.623
37.768
36.682
35.406
33.977
32.418
30.759
29.036
27.291
25.591
23.991
22.544
21.302
20.314
19.607
19.169
18.938
18.793
18.621
18.338
17.854
17.069
15.863
14.095
11.638
8.413
4.3
-0.943
-7.46
-15.246
-24.092
-33.447
-42.665
-51.205
-58.411
-63.414
-65.625
-64.918
-61.705
-57.217
-53.01
-50.417
-50.714
-55.564
-65.067
-76.813
-87.865
-94.173
-93.811
-90.159
-84.844
-74.649
-51.932
-1.825
88.45
219.935
386.913
575.558
766.143
944.753
1095.653
1202.213
1255.304
1245.521
1173.365
1048.876
881.14
685.643
475.636
263.891
69.691
-92.557
-211.977
-284.24
-316.698
-319.144
-299.874
-267.557
-229.453
-191.08
-159.807
-138.145
-121.707
-107.258
-91.055
-73.138
-58.912
-50.863
-49.584
-53.546
-58.806
-63.164
-65.301
-64.193
-59.992
-52.916
-43.346
-32.324
-20.677
-9.163
1.117
9.373
15.194
18.423
19.347
18.509
16.389
13.515
10.515
7.835
5.761
4.469
3.954
4.172
5.095
6.666
8.824
11.555
14.866
18.731
23.093
27.832
32.801
37.873
42.93
47.867
52.599
57.067
61.245
65.144
68.792
72.215
75.428
78.433
81.224
83.817
86.252
88.588
90.881
93.183
95.539
98.001
100.62
103.44
106.487
109.773
113.307
117.105
121.189
125.586
130.322
135.416
140.879
146.726
152.969
159.62
166.692
174.184
182.083
190.376
199.042
208.06
217.398
227.012
236.847
246.85
256.968
267.153
277.359
287.542
297.659
307.666
317.513
327.167
336.618
345.86
354.903
363.765
372.461
381.019
389.488
397.893
406.254
414.58
422.858
431.069
439.182
447.159
454.971
462.563
469.838
476.676
482.927
488.431
493.057
496.654
499.049
500.103
499.691
497.693
494.033
488.643
481.457
472.432
461.533
448.74
434.116
417.775
399.881
380.619
360.151
338.666
316.391
293.543
270.333
246.99
223.715
200.716
178.249
156.538
135.802
116.257
98.032
81.201
65.797
51.817
39.264
28.12
18.319
9.788
2.449
-3.805
-9.077
-13.497
-17.268
-20.566
-23.559
-26.425
-29.281
-32.206
-35.269
-38.502
-41.929
-45.566
-49.405
-53.422
-57.607
-61.927
-66.341
-70.792
-75.171
-79.391
-83.38
-87.066
-90.405
-93.372
-95.94
-98.11
-99.9
-101.325
-102.407
-103.173
-103.637
-103.826
-103.77
-103.506
-103.088
-102.56
-101.953
-101.296
-100.61
-99.911
-99.213
-98.522
-97.829
-97.132
-96.428
-95.715
-94.997
-94.275
-93.545
-92.805
-92.052
-91.283
-90.499
-89.702
-88.894
-88.077
-87.254
-86.432
-85.617
-84.818
-84.037
-83.281
-82.552
-81.854
-81.191
-80.567
-79.983
-79.443
-78.949
-78.503
-78.109
-77.769
-77.481
-77.248
-77.069
-76.943
-76.869
-76.846
-76.872
-76.945
-77.062
-77.221
-77.42
-77.655
-77.922
-78.22
-78.543
-78.89
-79.255
-79.637
-80.031
-80.435
-80.844
-81.256
-81.666
-82.072
-82.469
-82.855
-83.226
-83.579
-83.911
-84.219
-84.501
-84.756
-84.982
-85.179
-85.347
-85.485
-85.595
-85.678
-85.735
-85.769
-85.781
-85.774
-85.749
-85.709
-85.656
-85.592
-85.52
-85.44
-85.356
-85.269
-85.181
-85.092
-85.006
-84.923
-84.844
-84.773
-84.709
-84.656
-84.615
-84.587
-84.574
-84.577
-84.599
-84.639
-84.698
-84.777
-84.875
-84.994
-85.131
-85.288
-85.463
-85.656
-85.866
-86.094
-86.337
-86.596
-86.869
-87.158
-87.46
-87.777
-88.107
-88.452
-88.81
-89.183
-89.572
-89.975
-90.394
-90.829
-91.28
-91.746
-92.23
-92.73
-93.246
-93.78
-94.331
-94.899
-95.486
-96.092
-96.717
-97.36
-98.022
-98.703
-99.401
-100.117
-100.848
-101.595
-102.355
-103.127
-103.909
-104.699
-105.495
-106.294
-107.093
-107.889
-108.677
-109.454
-110.214
-110.954
-111.668
-112.353
-113.004
-113.614
-114.178
-114.69
-115.143
-115.53
-115.844
-116.078
-116.222
-116.27
-116.215
-116.05
-115.768
-115.364
-114.831
-114.165
-113.361
-112.413
-111.319
-110.074
-108.677
-107.128
-105.427
-103.576
-101.579
-99.442
-97.171
-94.775
-92.261
-89.641
-86.929
-84.138
-81.288
-78.397
-75.484
-72.569
-69.673
-66.814
-64.014
-61.291
-58.662
-56.145
-53.757
-51.519
-49.452
-47.567
-45.872
-44.364
-43.04
-41.899
-40.945
-40.181
-39.61
-39.238
-39.07
-39.118
-39.388
-39.878
-40.564
-41.401
-42.355
-43.4
-44.54
-45.805
-47.206
-48.73
-50.347
-52.007
-53.66
-55.274
-56.753
-57.968
-58.917
-59.721
-60.676
-62.225
-64.691
-68.254
-73.146
-79.512
-87.148
-95.526
-103.692
-110.484
-115.148
-117.236
-116.232
-111.851
-104.377
-94.758
-84.678
-75.87
-69.379
-65.958
-66.68
-72.592
-84.08
-100.753
-121.329
-144.62
-170.399
-196.741
-218.897
-232.438
-233.464
-223.587
-210.829
-197.306
-178.896
-143.008
-69.417
50.148
211.111
399.701
593.406
776.614
941.781
1079.443
1180.267
1232.616
1221.727
1144.508
1007.558
820.384
601.465
368.389
138.375
-64.175
-221.352
-325.769
-380.012
-400.083
-402.428
-391.614
-365.174
-318.459
-251.434
-178.639
-119.146
-85.111
-79.289
-91.041
-106.773
-119.223
-126.933
-134.064
-143.56
-154.191
-162.974
-166.344
-163.003
-153.891
-140.601
-125.089
-109.12
-94.199
-81.552
-71.8
-65.025
-60.971
-59.164
-59.122
-60.29
-61.965
-63.61
-64.874
-65.53
-65.554
-64.954
-63.704
-61.83
-59.395
-56.437
-53.011
-49.176
-44.955
-40.403
-35.598
-30.612
-25.544
-20.489
-15.53
-10.752
-6.211
-1.936
2.055
5.755
9.178
12.337
15.266
18.006
20.596
23.071
25.467
27.82
30.171
32.564
35.038
37.633
40.384
43.325
46.49
49.908
53.608
57.617
61.957
66.643
71.697
77.136
82.982
89.26
95.986
103.163
110.791
118.864
127.365
136.269
145.539
155.125
164.974
175.038
185.269
195.63
206.083
216.589
227.11
237.599
248.027
258.384
268.668
278.888
289.059
299.193
309.323
319.501
329.767
340.139
350.621
361.188
371.8
382.403
392.933
403.319
413.456
423.208
432.42
440.916
448.528
455.099
460.459
464.421
466.825
467.545
466.488
463.611
458.894
452.345
444.001
433.922
422.216
409.027
394.538
378.96
362.493
345.325
327.652
309.686
291.615
273.61
255.808
238.31
221.206
204.57
188.46
172.916
157.947
143.535
129.642
116.205
103.179
90.534
78.237
66.257
54.571
43.163
32.037
21.217
10.722
0.567
-9.228
-18.646
-27.656
-36.224
-44.31
-51.871
-58.88
-65.322
-71.186
-76.472
-81.187
-85.343
-88.964
-92.086
-94.741
-96.959
-98.771
-100.208
-101.304
-102.096
-102.622
-102.92
-103.023
-102.966
-102.781
-102.497
-102.141
-101.739
-101.313
-100.882
-100.466
-100.084
-99.756
-99.499
-99.33
-99.263
-99.311
-99.485
-99.793
-100.242
-100.834
-101.571
-102.452
-103.473
-104.632
-105.922
-107.335
-108.864
-110.498
-112.227
-114.041
-115.926
-117.871
-119.863
-121.889
-123.937
-125.995
-128.052
-130.095
-132.114
-134.098
-136.039
-137.925
-139.749
-141.502
-143.177
-144.767
-146.266
-147.67
-148.973
-150.175
-151.272
-152.265
-153.154
-153.942
-154.63
-155.225
-155.729
-156.149
-156.491
-156.762
-156.97
-157.123
-157.227
-157.293
-157.327
-157.338
-157.334
-157.321
-157.306
-157.297
-157.297
-157.314
-157.351
-157.413
-157.502
-157.623
-157.776
-157.964
-158.187
-158.446
-158.741
-159.07
-159.431
-159.823
-160.241
-160.682
-161.142
-161.614
-162.095
-162.576
-163.052
-163.515
-163.958
-164.375
-164.757
-165.097
-165.389
-165.625
-165.8
-165.907
-165.941
-165.898
-165.773
-165.563
-165.264
-164.875
-164.394
-163.82
-163.153
-162.392
-161.537
-160.591
-159.555
-158.43
-157.218
-155.924
-154.55
-153.1
-151.577
-149.988
-148.337
-146.63
-144.872
-143.07
-141.229
-139.357
-137.46
-135.544
-133.616
-131.682
-129.748
-127.819
-125.902
-124
-122.119
-120.264
-118.437
-116.642
-114.883
-113.162
-111.482
-109.845
-108.254
-106.711
-105.218
-103.777
-102.389
-101.058
-99.784
-98.569
-97.416
-96.324
-95.296
-94.332
-93.433
-92.599
-91.831
-91.128
-90.49
-89.916
-89.406
-88.957
-88.57
-88.241
-87.97
-87.754
-87.593
-87.482
-87.421
-87.406
-87.435
-87.503
-87.608
-87.745
-87.909
-88.095
-88.297
-88.509
-88.724
-88.934
-89.132
-89.308
-89.454
-89.56
-89.616
-89.613
-89.541
-89.389
-89.148
-88.81
-88.366
-87.807
-87.126
-86.315
-85.369
-84.283
-83.05
-81.669
-80.135
-78.449
-76.609
-74.616
-72.473
-70.185
-67.757
-65.2
-62.522
-59.737
-56.857
-53.899
-50.878
-47.813
-44.72
-41.616
-38.519
-35.449
-32.426
-29.472
-26.61
-23.86
-21.243
-18.779
-16.487
-14.382
-12.475
-10.773
-9.285
-8.023
-7.007
-6.26
-5.794
-5.623
-5.754
-6.189
-6.922
-7.937
-9.198
-10.663
-12.293
-14.048
-15.901
-17.823
-19.773
-21.698
-23.526
-25.185
-26.615
-27.76
-28.571
-29.032
-29.149
-28.974
-28.612
-28.16
-27.721
-27.407
-27.318
-27.566
-28.271
-29.539
-31.513
-34.418
-38.42
-43.574
-49.803
-56.784
-64.071
-71.189
-77.499
-82.185
-84.564
-84.298
-81.495
-76.86
-71.59
-67.03
-64.598
-66.008
-71.722
-80.357
-90.067
-97.919
-103.041
-107.38
-110.744
-111.1
-100.084
-64.566
4.579
113.685
259.168
430.642
619.037
809.966
990.322
1144.714
1252.139
1297.764
1271.518
1173.755
1015.346
810.105
577.124
336.791
111.522
-75.799
-211.097
-291.672
-325.949
-327.842
-309.271
-276.62
-234.296
-190.162
-152.491
-127.858
-117.115
-112.061
-104.542
-91.287
-73.895
-58.83
-50.48
-48.908
-52.086
-56.712
-60.841
-63.72
-64.642
-63.592
-60.721
-56.237
-50.671
-44.368
-37.566
-30.917
-25.263
-21.098
-18.587
-17.591
-17.737
-18.704
-20.242
-21.942
-23.321
-24.069
-24.034
-23.196
-21.665
-19.52
-16.808
-13.619
-10.063
-6.227
-2.19
1.989
6.267
10.572
14.818
18.921
22.82
26.481
29.892
33.056
35.988
38.715
41.272
43.701
46.038
48.315
50.561
52.808
55.087
57.436
59.891
62.494
65.283
68.295
71.564
75.12
78.991
83.202
87.777
92.738
98.099
103.878
110.093
116.759
123.896
131.515
139.611
148.177
157.196
166.641
176.483
186.681
197.176
207.909
218.824
229.862
240.99
252.173
263.368
274.532
285.618
296.589
307.44
318.173
328.778
339.258
349.609
359.842
370.008
380.136
390.24
400.33
410.37
420.309
430.113
439.736
449.118
458.189
466.821
474.863
482.196
488.694
494.234
498.685
501.864
503.62
503.832
502.388
499.22
494.282
487.521
478.908
468.458
456.195
442.218
426.686
409.724
391.479
372.112
351.804
330.787
309.287
287.515
265.691
244.028
222.748
202.074
182.203
163.298
145.514
128.953
113.653
99.665
87.011
75.687
65.673
56.91
49.324
42.831
37.327
32.676
28.712
25.275
22.22
19.42
16.744
14.091
11.39
8.579
5.622
2.495
-0.822
-4.336
-8.039
-11.912
-15.92
-20.005
-24.079
-28.073
-31.933
-35.61
-39.062
-42.257
-45.174
-47.808
-50.177
-52.297
-54.181
-55.844
-57.303
-58.585
-59.72
-60.748
-61.717
-62.664
-63.613
-64.588
-65.604
-66.67
-67.793
-68.968
-70.179
-71.413
-72.659
-73.908
-75.151
-76.375
-77.567
-78.712
-79.796
-80.808
-81.738
-82.579
-83.325
-83.973
-84.519
-84.965
-85.315
-85.572
-85.737
-85.814
-85.805
-85.714
-85.546
-85.305
-84.997
-84.628
-84.206
-83.739
-83.239
-82.715
-82.178
-81.639
-81.11
-80.604
-80.131
-79.705
-79.337
-79.039
-78.822
-78.696
-78.672
-78.758
-78.962
-79.292
-79.753
-80.349
-81.083
-81.959
-82.977
-84.136
-85.437
-86.878
-88.455
-90.165
-92.003
-93.965
-96.042
-98.23
-100.519
-102.9
-105.363
-107.899
-110.497
-113.144
-115.83
-118.543
-121.271
-124.001
-126.723
-129.424
-132.094
-134.72
-137.292
-139.801
-142.237
-144.591
-146.855
-149.023
-151.089
-153.048
-154.895
-156.627
-158.242
-159.739
-161.116
-162.373
-163.511
-164.533
-165.439
-166.233
-166.92
-167.503
-167.99
-168.384
-168.693
-168.925
-169.085
-169.182
-169.224
-169.219
-169.175
-169.102
-169.007
-168.9
-168.79
-168.685
-168.595
-168.527
-168.49
-168.491
-168.537
-168.636
-168.794
-169.017
-169.311
-169.682
-170.134
-170.673
-171.303
-172.026
-172.847
-173.766
-174.785
-175.905
-177.125
-178.444
-179.861
-181.372
-182.975
-184.666
-186.439
-188.289
-190.21
-192.194
-194.232
-196.315
-198.433
-200.574
-202.728
-204.881
-207.023
-209.14
-211.219
-213.246
-215.205
-217.084
-218.865
-220.534
-222.074
-223.468
-224.699
-225.752
-226.61
-227.259
-227.684
-227.871
-227.807
-227.48
-226.88
-225.998
-224.826
-223.355
-221.581
-219.501
-217.113
-214.419
-211.422
-208.129
-204.549
-200.695
-196.58
-192.221
-187.634
-182.838
-177.852
-172.698
-167.4
-161.984
-156.477
-150.912
-145.321
-139.738
-134.197
-128.731
-123.371
-118.146
-113.081
-108.199
-103.518
-99.062
-94.849
-90.901
-87.241
-83.885
-80.838
-78.103
-75.68
-73.564
-71.743
-70.197
-68.893
-67.807
-66.918
-66.215
-65.689
-65.307
-65.041
-64.854
-64.71
-64.61
-64.558
-64.543
-64.538
-64.515
-64.456
-64.408
-64.441
-64.561
-64.814
-65.309
-66.246
-67.981
-70.874
-75.148
-80.885
-88.107
-96.616
-105.935
-115.349
-123.746
-129.851
-132.578
-131.239
-125.473
-115.41
-101.877
-86.153
-70.126
-56.158
-46.676
-43.642
-48.428
-61.985
-83.071
-108.228
-133.844
-155.508
-171.27
-183.708
-192.505
-193.292
-176.91
-127.726
-35.896
97.44
262.471
442.112
621.531
792.46
949.372
1082.829
1178.72
1221.388
1196.088
1101.715
946.879
741.447
504.265
253.571
8.736
-201.315
-357.702
-455.1
-497.41
-503.384
-489.113
-457.797
-411.569
-351.537
-283.006
-220.594
-174.6
-146.675
-132.329
-123.059
-113.772
-105.238
-101.54
-105.177
-115.079
-127.917
-138.771
-144.334
-144.034
-138.247
-127.95
-114.38
-98.576
-81.693
-65.405
-51.27
-40.058
-32.061
-27.156
-24.897
-24.878
-26.686
-29.698
-33.303
-37.145
-41.036
-44.951
-48.948
-52.981
-56.933
-60.659
-64.024
-66.929
-69.306
-71.104
-72.293
-72.874
-72.889
-72.416
-71.531
-70.285
-68.699
-66.768
-64.498
-61.926
-59.113
-56.159
-53.155
-50.157
-47.197
-44.292
-41.437
-38.621
-35.81
-32.944
-29.958
-26.806
-23.448
-19.864
-16.026
-11.889
-7.403
-2.509
2.85
8.716
15.13
22.127
29.73
37.941
46.751
56.132
66.044
76.452
87.308
98.554
110.137
122.008
134.118
146.428
158.887
171.431
184.001
196.534
208.983
221.327
233.549
245.639
257.618
269.52
281.399
293.328
305.338
317.43
329.601
341.822
354.075
366.358
378.643
390.886
403.037
415.013
426.71
438.009
448.725
458.625
467.467
474.995
481.012
485.376
487.936
488.567
487.154
483.586
477.798
469.762
459.439
446.829
431.991
415.022
396.124
375.579
353.68
330.734
307.017
282.781
258.309
233.888
209.798
186.301
163.618
141.951
121.531
102.563
85.189
69.502
55.5
43.109
32.25
22.829
14.748
7.896
2.126
-2.736
-6.872
-10.432
-13.542
-16.335
-18.963
-21.572
-24.27
-27.126
-30.154
-33.342
-36.675
-40.137
-43.7
-47.312
-50.906
-54.395
-57.686
-60.717
-63.445
-65.824
-67.807
-69.354
-70.441
-71.072
-71.273
-71.073
-70.498
-69.578
-68.345
-66.849
-65.143
-63.289
-61.349
-59.37
-57.391
-55.446
-53.566
-51.775
-50.091
-48.522
-47.067
-45.726
-44.504
-43.403
-42.423
-41.561
-40.81
-40.162
-39.609
-39.142
-38.754
-38.438
-38.189
-38.001
-37.871
-37.794
-37.771
-37.797
-37.868
-37.979
-38.122
-38.292
-38.484
-38.691
-38.908
-39.129
-39.351
-39.571
-39.784
-39.99
-40.186
-40.369
-40.538
-40.692
-40.83
-40.951
-41.054
-41.142
-41.215
-41.274
-41.321
-41.359
-41.39
-41.416
-41.44
-41.464
-41.492
-41.526
-41.568
-41.621
-41.688
-41.77
-41.872
-41.994
-42.138
-42.306
-42.499
-42.719
-42.965
-43.237
-43.536
-43.861
-44.211
-44.584
-44.981
-45.399
-45.836
-46.292
-46.763
-47.247
-47.743
-48.246
-48.754
-49.264
-49.773
-50.277
-50.772
-51.256
-51.725
-52.177
-52.608
-53.015
-53.397
-53.75
-54.072
-54.363
-54.619
-54.84
-55.024
-55.171
-55.281
-55.352
-55.386
-55.382
-55.341
-55.263
-55.151
-55.004
-54.825
-54.614
-54.374
-54.106
-53.814
-53.499
-53.164
-52.813
-52.448
-52.073
-51.69
-51.304
-50.918
-50.534
-50.157
-49.79
-49.435
-49.095
-48.775
-48.476
-48.201
-47.954
-47.736
-47.55
-47.399
-47.285
-47.209
-47.173
-47.179
-47.229
-47.323
-47.464
-47.651
-47.887
-48.17
-48.503
-48.886
-49.317
-49.798
-50.327
-50.905
-51.529
-52.199
-52.912
-53.668
-54.464
-55.298
-56.167
-57.069
-58
-58.958
-59.939
-60.939
-61.955
-62.982
-64.015
-65.05
-66.082
-67.104
-68.113
-69.101
-70.064
-70.995
-71.89
-72.741
-73.543
-74.289
-74.972
-75.585
-76.121
-76.574
-76.935
-77.2
-77.361
-77.414
-77.353
-77.172
-76.867
-76.433
-75.867
-75.165
-74.324
-73.342
-72.218
-70.952
-69.548
-68.007
-66.334
-64.535
-62.619
-60.592
-58.465
-56.25
-53.96
-51.609
-49.216
-46.796
-44.37
-41.954
-39.568
-37.227
-34.951
-32.755
-30.656
-28.669
-26.812
-25.103
-23.559
-22.191
-21.004
-19.996
-19.165
-18.512
-18.04
-17.755
-17.66
-17.759
-18.06
-18.572
-19.295
-20.222
-21.32
-22.543
-23.853
-25.223
-26.65
-28.152
-29.727
-31.354
-32.998
-34.609
-36.143
-37.569
-38.802
-39.727
-40.353
-40.803
-41.353
-42.404
-44.219
-46.922
-50.703
-55.711
-61.816
-68.636
-75.425
-81.245
-85.59
-88.265
-88.966
-87.498
-84.007
-79.022
-73.697
-69.302
-66.414
-65.264
-66.398
-70.468
-77.915
-88.915
-102.923
-119.122
-137.531
-157.346
-175.555
-188.94
-194.161
-189.871
-179.438
-164.555
-142.182
-105.549
-42.484
56.31
190.08
353.241
534.927
721.396
903.327
1066.164
1190.546
1259.86
1257.962
1182.898
1045.998
861.066
646.973
417.664
186.694
-25.056
-199.324
-321.012
-386.108
-405.877
-394.248
-363.591
-321.246
-270.381
-217.964
-172.794
-142.468
-128.968
-125.44
-124.281
-120.646
-114.079
-109.957
-111.447
-117.777
-126.745
-133.922
-136.501
-134.591
-128.688
-119.701
-108.834
-96.916
-84.875
-74.043
-65.306
-58.902
-54.895
-53.045
-52.911
-54.149
-56.263
-58.567
-60.584
-62.019
-62.695
-62.629
-61.852
-60.344
-58.157
-55.377
-52.069
-48.318
-44.185
-39.7
-34.922
-29.927
-24.802
-19.653
-14.571
-9.63
-4.884
-0.357
3.937
7.996
11.831
15.465
18.926
22.253
25.48
28.636
31.754
34.869
38.019
41.247
44.595
48.098
51.791
55.701
59.855
64.278
68.992
74.013
79.359
85.041
91.074
97.47
104.24
111.394
118.935
126.867
135.187
143.893
152.976
162.425
172.222
182.348
192.782
203.496
214.461
225.646
237.016
248.532
260.155
271.842
283.547
295.225
306.827
318.305
329.606
340.681
351.478
361.945
372.033
381.69
390.868
399.518
407.594
415.052
421.85
427.948
433.308
437.899
441.688
444.651
446.764
448.009
448.373
447.845
446.419
444.096
440.877
436.771
431.788
425.946
419.263
411.765
403.477
394.431
384.661
374.206
363.104
351.4
339.137
326.364
313.129
299.482
285.476
271.163
256.597
241.831
226.919
211.914
196.87
181.837
166.867
152.009
137.31
122.814
108.566
94.605
80.97
67.694
54.811
42.348
30.331
18.783
7.722
-2.836
-12.879
-22.396
-31.382
-39.831
-47.744
-55.121
-61.967
-68.288
-74.093
-79.392
-84.2
-88.53
-92.4
-95.827
-98.832
-101.434
-103.656
-105.52
-107.046
-108.261
-109.19
-109.858
-110.29
-110.508
-110.531
-110.386
-110.101
-109.684
-109.148
-108.504
-107.758
-106.935
-106.07
-105.16
-104.202
-103.245
-102.327
-101.478
-100.741
-100.097
-99.496
-98.976
-98.598
-98.222
-97.678
-97.073
-96.401
-95.629
-95.13
-93.906
-90.985
-87.755
-84.634
-84.168
-89.408
-96.973
-104.612
-108.972
-105.45
-98.115
-90.416
-84.719
-84.93
-88.254
-91.861
-95.121
-96.307
-96.422
-96.755
-97.06
-97.503
-97.996
-98.28
-98.524
-98.866
-99.26
-99.695
-100.187
-100.731
-101.317
-101.939
-102.572
-103.184
-103.788
-104.396
-105.001
-105.605
-106.208
-106.806
-107.403
-108.002
-108.599
-109.193
-109.781
-110.363
-110.937
-111.501
-112.055
-112.596
-113.124
-113.636
-114.132
-114.611
-115.071
-115.511
-115.932
-116.332
-116.713
-117.074
-117.415
-117.738
-118.044
-118.332
-118.604
-118.861
-119.103
-119.33
-119.544
-119.743
-119.928
-120.101
-120.26
-120.407
-120.542
-120.666
-120.78
-120.884
-120.979
-121.067
-121.148
-121.224
-121.294
-121.361
-121.426
-121.489
-121.551
-121.614
-121.677
-121.742
-121.808
-121.877
-121.948
-122.021
-122.097
-122.174
-122.253
-122.333
-122.415
-122.499
-122.583
-122.669
-122.756
-122.844
-122.933
-123.021
-123.11
-123.199
-123.286
-123.373
-123.457
-123.539
-123.619
-123.695
-123.767
-123.835
-123.897
-123.954
-124.004
-124.049
-124.086
-124.117
-124.14
-124.156
-124.166
-124.168
-124.164
-124.155
-124.141
-124.123
-124.102
-124.079
-124.056
-124.034
-124.014
-123.999
-123.989
-123.986
-123.993
-124.009
-124.037
-124.078
-124.133
-124.204
-124.291
-124.395
-124.518
-124.657
-124.815
-124.989
-125.178
-125.382
-125.598
-125.823
-126.056
-126.293
-126.53
-126.765
-126.992
-127.206
-127.402
-127.573
-127.713
-127.815
-127.87
-127.87
-127.808
-127.675
-127.463
-127.165
-126.771
-126.274
-125.666
-124.94
-124.09
-123.109
-121.992
-120.735
-119.335
-117.79
-116.1
-114.265
-112.29
-110.18
-107.942
-105.584
-103.117
-100.551
-97.9
-95.177
-92.399
-89.578
-86.73
-83.873
-81.025
-78.206
-75.438
-72.742
-70.142
-67.66
-65.318
-63.138
-61.137
-59.328
-57.724
-56.338
-55.186
-54.292
-53.677
-53.356
-53.344
-53.648
-54.27
-55.204
-56.426
-57.896
-59.573
-61.416
-63.388
-65.466
-67.618
-69.807
-71.986
-74.09
-76.059
-77.843
-79.39
-80.653
-81.611
-82.276
-82.709
-83.032
-83.354
-83.76
-84.342
-85.184
-86.393
-88.098
-90.415
-93.43
-97.273
-102.159
-108.225
-115.485
-123.762
-132.576
-141.357
-149.569
-156.527
-161.383
-163.529
-162.735
-159.229
-153.939
-148.088
-142.772
-139.314
-139.42
-143.099
-148.43
-153.474
-155.061
-153.243
-152.417
-151.923
-147.178
-127.36
-74.339
19.718
151.294
308.331
468.767
618.63
754.002
873.786
981.182
1071.382
1131.21
1147.02
1105.022
1000.092
836.221
625.464
389.461
152.93
-57.782
-222.582
-334.291
-395.775
-418.658
-414.505
-389.669
-348.075
-294.332
-237.699
-189.141
-156.809
-141.491
-135.684
-131.901
-125.905
-117.961
-113.399
-115.146
-122.21
-132.1
-140.378
-144.132
-143.236
-138.143
-129.775
-119.373
-107.858
-96.178
-85.639
-77.144
-70.959
-67.143
-65.458
-65.439
-66.681
-68.661
-70.676
-72.232
-73.081
-73.089
-72.289
-70.741
-68.443
-65.46
-61.906
-57.87
-53.433
-48.653
-43.556
-38.194
-32.658
-27.047
-21.473
-16.035
-10.794
-5.789
-1.045
3.429
7.634
11.585
15.312
18.853
22.242
25.511
28.688
31.805
34.9
38.015
41.194
44.475
47.891
51.472
55.243
59.23
63.456
67.945
72.716
77.788
83.184
88.922
95.022
101.5
108.37
115.637
123.305
131.374
139.846
148.722
158.002
167.679
177.736
188.147
198.878
209.883
221.105
232.482
243.947
255.446
266.93
278.365
289.73
301.002
312.161
323.172
333.982
344.539
354.797
364.714
374.261
383.436
392.248
400.721
408.886
416.743
424.272
431.427
438.127
444.274
449.759
454.491
458.427
461.547
463.836
465.28
465.844
465.45
464.016
461.444
457.616
452.456
445.9
437.91
428.52
417.807
405.884
392.853
378.76
363.6
347.376
330.105
311.843
292.709
272.822
252.327
231.424
210.306
189.188
168.296
147.777
127.717
108.175
89.211
70.939
53.541
37.173
21.956
7.983
-4.715
-16.104
-26.166
-34.96
-42.582
-49.17
-54.904
-59.898
-64.211
-67.897
-71.005
-73.621
-75.888
-77.915
-79.778
-81.545
-83.26
-84.974
-86.742
-88.559
-90.382
-92.137
-93.725
-95.085
-96.205
-97.066
-97.662
-97.978
-97.978
-97.655
-97.029
-96.113
-94.922
-93.466
-91.75
-89.801
-87.677
-85.436
-83.148
-80.867
-78.622
-76.446
-74.365
-72.4
-70.57
-68.883
-67.329
-65.909
-64.623
-63.474
-62.467
-61.598
-60.856
-60.231
-59.712
-59.29
-58.957
-58.705
-58.526
-58.413
-58.363
-58.372
-58.44
-58.565
-58.739
-58.959
-59.217
-59.508
-59.825
-60.163
-60.514
-60.872
-61.232
-61.589
-61.94
-62.281
-62.609
-62.921
-63.216
-63.493
-63.749
-63.983
-64.196
-64.386
-64.554
-64.698
-64.82
-64.919
-64.995
-65.049
-65.081
-65.092
-65.081
-65.049
-64.995
-64.92
-64.825
-64.71
-64.575
-64.422
-64.251
-64.063
-63.86
-63.642
-63.411
-63.168
-62.913
-62.648
-62.373
-62.091
-61.801
-61.506
-61.207
-60.904
-60.599
-60.295
-59.992
-59.693
-59.398
-59.109
-58.83
-58.56
-58.303
-58.06
-57.833
-57.624
-57.436
-57.269
-57.128
-57.012
-56.924
-56.867
-56.841
-56.849
-56.892
-56.971
-57.088
-57.243
-57.437
-57.671
-57.944
-58.257
-58.608
-58.998
-59.426
-59.889
-60.387
-60.918
-61.48
-62.071
-62.687
-63.328
-63.99
-64.67
-65.365
-66.072
-66.789
-67.511
-68.237
-68.961
-69.683
-70.397
-71.101
-71.792
-72.466
-73.121
-73.754
-74.362
-74.944
-75.495
-76.016
-76.504
-76.957
-77.375
-77.756
-78.102
-78.411
-78.684
-78.921
-79.124
-79.295
-79.434
-79.544
-79.627
-79.686
-79.723
-79.741
-79.744
-79.735
-79.717
-79.695
-79.673
-79.653
-79.641
-79.64
-79.654
-79.687
-79.742
-79.823
-79.934
-80.077
-80.255
-80.472
-80.729
-81.028
-81.371
-81.758
-82.19
-82.667
-83.187
-83.749
-84.351
-84.99
-85.663
-86.366
-87.094
-87.843
-88.607
-89.379
-90.153
-90.921
-91.675
-92.406
-93.105
-93.761
-94.367
-94.91
-95.383
-95.773
-96.072
-96.27
-96.356
-96.321
-96.157
-95.855
-95.406
-94.803
-94.04
-93.112
-92.016
-90.75
-89.313
-87.708
-85.94
-84.015
-81.94
-79.725
-77.377
-74.909
-72.332
-69.661
-66.909
-64.096
-61.237
-58.353
-55.464
-52.594
-49.766
-47
-44.315
-41.73
-39.259
-36.917
-34.724
-32.697
-30.854
-29.217
-27.801
-26.621
-25.693
-25.028
-24.631
-24.495
-24.601
-24.921
-25.43
-26.107
-26.93
-27.882
-28.925
-30.018
-31.122
-32.194
-33.218
-34.189
-35.075
-35.825
-36.396
-36.791
-37.075
-37.398
-37.853
-38.443
-39.242
-40.442
-42.41
-45.553
-50.069
-55.846
-62.725
-70.822
-80.187
-90.536
-101.037
-110.423
-117.757
-122.859
-125.869
-126.459
-124.293
-119.553
-113.42
-108.128
-105.541
-106.526
-111.397
-120.803
-135.694
-154.875
-174.19
-188.89
-193.947
-189.254
-180.131
-166.216
-144.09
-104.359
-29.673
85.659
239.365
423.636
617.289
804.372
972.134
1102.287
1185.272
1212.739
1176.475
1082.827
939.269
752.113
536.759
306.412
78.817
-118.282
-267.243
-359.834
-397.48
-397.459
-375.102
-340.937
-304.89
-269.746
-238.725
-213.688
-190.829
-168.167
-143.502
-118.011
-97.71
-85.188
-81.412
-85.213
-92.036
-99.52
-106.399
-110.714
-112.054
-110.444
-105.664
-98.42
-89.718
-80.087
-70.406
-61.983
-55.478
-51.16
-49.122
-48.939
-50.133
-52.4
-55.223
-57.934
-60.153
-61.657
-62.349
-62.347
-61.723
-60.487
-58.727
-56.55
-54.034
-51.256
-48.263
-45.072
-41.742
-38.359
-35.01
-31.789
-28.751
-25.917
-23.297
-20.884
-18.665
-16.615
-14.697
-12.867
-11.086
-9.32
-7.537
-5.707
-3.791
-1.747
0.467
2.89
5.557
8.496
11.736
15.302
19.218
23.504
28.178
33.257
38.756
44.691
51.076
57.916
65.21
72.961
81.166
89.826
98.943
108.503
118.486
128.869
139.622
150.701
162.056
173.617
185.308
197.073
208.864
220.639
232.376
244.04
255.601
267.036
278.302
289.357
300.169
310.689
320.884
330.751
340.294
349.554
358.581
367.374
375.918
384.188
392.115
399.628
406.646
413.052
418.781
423.797
428.061
431.556
434.242
436.029
436.826
436.514
434.948
432.045
427.731
421.942
414.696
406.04
396.053
384.862
372.536
359.081
344.518
328.879
312.23
294.706
276.438
257.586
238.363
218.97
199.633
180.566
161.899
143.714
126.069
108.99
92.561
76.937
62.239
48.557
35.95
24.422
13.983
4.617
-3.755
-11.262
-18.072
-24.337
-30.144
-35.539
-40.554
-45.225
-49.628
-53.875
-58.047
-62.2
-66.381
-70.616
-74.942
-79.379
-83.897
-88.417
-92.83
-97.053
-101.045
-104.793
-108.288
-111.515
-114.448
-117.059
-119.348
-121.319
-122.977
-124.324
-125.357
-126.084
-126.537
-126.775
-126.862
-126.848
-126.766
-126.639
-126.486
-126.328
-126.186
-126.067
-125.968
-125.888
-125.831
-125.803
-125.814
-125.866
-125.956
-126.075
-126.217
-126.375
-126.548
-126.734
-126.928
-127.129
-127.337
-127.555
-127.787
-128.035
-128.299
-128.577
-128.867
-129.165
-129.469
-129.777
-130.081
-130.379
-130.665
-130.936
-131.189
-131.419
-131.622
-131.795
-131.934
-132.037
-132.101
-132.123
-132.1
-132.029
-131.909
-131.736
-131.511
-131.23
-130.894
-130.501
-130.051
-129.545
-128.982
-128.364
-127.69
-126.962
-126.182
-125.351
-124.473
-123.55
-122.585
-121.583
-120.549
-119.487
-118.402
-117.299
-116.184
-115.061
-113.936
-112.813
-111.698
-110.594
-109.508
-108.444
-107.407
-106.402
-105.433
-104.504
-103.619
-102.782
-101.994
-101.259
-100.578
-99.952
-99.382
-98.87
-98.414
-98.014
-97.671
-97.382
-97.146
-96.962
-96.825
-96.735
-96.686
-96.677
-96.702
-96.759
-96.843
-96.951
-97.079
-97.223
-97.379
-97.543
-97.711
-97.879
-98.043
-98.199
-98.344
-98.474
-98.586
-98.677
-98.745
-98.788
-98.804
-98.793
-98.753
-98.683
-98.583
-98.454
-98.296
-98.11
-97.896
-97.658
-97.397
-97.115
-96.815
-96.499
-96.171
-95.833
-95.487
-95.136
-94.784
-94.432
-94.083
-93.741
-93.408
-93.087
-92.781
-92.493
-92.226
-91.982
-91.763
-91.571
-91.408
-91.276
-91.176
-91.109
-91.075
-91.076
-91.112
-91.182
-91.285
-91.419
-91.583
-91.774
-91.988
-92.221
-92.47
-92.73
-92.996
-93.265
-93.532
-93.791
-94.038
-94.266
-94.469
-94.642
-94.779
-94.87
-94.911
-94.894
-94.813
-94.661
-94.432
-94.12
-93.717
-93.217
-92.614
-91.903
-91.077
-90.132
-89.065
-87.873
-86.554
-85.11
-83.544
-81.857
-80.058
-78.153
-76.149
-74.056
-71.889
-69.659
-67.384
-65.078
-62.752
-60.422
-58.1
-55.801
-53.541
-51.333
-49.187
-47.117
-45.14
-43.273
-41.536
-39.938
-38.476
-37.146
-35.946
-34.882
-33.976
-33.241
-32.685
-32.318
-32.148
-32.187
-32.443
-32.903
-33.522
-34.238
-35.001
-35.779
-36.579
-37.423
-38.313
-39.207
-40.034
-40.719
-41.192
-41.441
-41.426
-41.058
-40.364
-39.484
-38.661
-38.348
-38.94
-40.513
-43.103
-46.707
-50.978
-55.668
-60.532
-64.775
-67.767
-69.385
-69.451
-68.164
-66.326
-64.191
-61.833
-60.021
-59.256
-59.818
-62.417
-67.177
-73.808
-82.81
-94.747
-108.611
-122.477
-134.462
-142.71
-149.131
-157.462
-166.513
-169.519
-152.957
-101.497
-9.614
115.402
258.382
403.249
542.593
680.561
822.271
965.464
1096.474
1191.269
1226.806
1191.055
1086.247
925.246
726.63
509.407
289.912
85.31
-88.435
-220.681
-306.741
-350.402
-361.629
-349.96
-324.072
-291.48
-256.977
-225.731
-199.245
-174.342
-149.077
-121.177
-92.417
-69.093
-53.999
-48.157
-50.463
-56.877
-65.187
-74.202
-81.963
-87.122
-88.919
-86.857
-81.316
-73.151
-62.972
-51.489
-39.866
-29.319
-20.588
-13.976
-9.378
-6.409
-4.781
-4.261
-4.451
-4.883
-5.281
-5.522
-5.585
-5.554
-5.434
-5.132
-4.634
-3.959
-3.108
-2.108
-0.965
0.357
1.857
3.532
5.413
7.51
9.844
12.454
15.342
18.494
21.88
25.423
29.066
32.779
36.539
40.348
44.219
48.153
52.163
56.268
60.468
64.766
69.167
73.661
78.259
82.989
87.885
93.005
98.405
104.12
110.184
116.621
123.445
130.667
138.282
146.279
154.651
163.398
172.524
182.025
191.885
202.074
212.559
223.298
234.239
245.32
256.458
267.577
278.616
289.535
300.31
310.918
321.328
331.504
341.41
351.029
360.357
369.378
378.069
386.411
394.405
402.091
409.55
416.842
423.983
430.945
437.663
444.08
450.14
455.777
460.9
465.393
469.144
472.08
474.164
475.35
475.553
474.635
472.399
468.686
463.413
456.553
448.136
438.194
426.763
413.924
399.81
384.578
368.365
351.262
333.297
314.526
295.078
275.143
254.989
234.866
214.95
195.383
176.269
157.703
139.774
122.532
105.965
90.056
74.82
60.323
46.696
34.042
22.38
11.676
1.83
-7.278
-15.721
-23.555
-30.838
-37.61
-43.911
-49.759
-55.123
-59.982
-64.35
-68.279
-71.874
-75.228
-78.376
-81.328
-84.055
-86.503
-88.647
-90.469
-91.939
-93.047
-93.797
-94.2
-94.302
-94.15
-93.77
-93.172
-92.346
-91.28
-89.99
-88.503
-86.86
-85.116
-83.314
-81.498
-79.719
-78.015
-76.416
-74.944
-73.608
-72.405
-71.344
-70.433
-69.683
-69.108
-68.713
-68.497
-68.461
-68.597
-68.899
-69.358
-69.963
-70.701
-71.562
-72.539
-73.625
-74.816
-76.107
-77.49
-78.957
-80.499
-82.106
-83.769
-85.476
-87.215
-88.975
-90.744
-92.513
-94.271
-96.01
-97.718
-99.389
-101.013
-102.582
-104.092
-105.535
-106.906
-108.203
-109.421
-110.558
-111.613
-112.586
-113.476
-114.285
-115.014
-115.666
-116.242
-116.745
-117.179
-117.546
-117.849
-118.094
-118.282
-118.418
-118.508
-118.557
-118.569
-118.551
-118.509
-118.448
-118.375
-118.295
-118.215
-118.139
-118.075
-118.027
-117.999
-117.998
-118.026
-118.088
-118.187
-118.325
-118.503
-118.722
-118.983
-119.286
-119.629
-120.01
-120.43
-120.884
-121.371
-121.888
-122.432
-122.999
-123.587
-124.191
-124.808
-125.433
-126.063
-126.691
-127.315
-127.929
-128.528
-129.108
-129.662
-130.187
-130.678
-131.128
-131.535
-131.894
-132.201
-132.454
-132.649
-132.786
-132.862
-132.879
-132.836
-132.734
-132.576
-132.362
-132.097
-131.783
-131.425
-131.026
-130.591
-130.126
-129.634
-129.123
-128.597
-128.061
-127.523
-126.987
-126.459
-125.946
-125.455
-124.99
-124.559
-124.169
-123.824
-123.531
-123.295
-123.119
-123.01
-122.968
-122.998
-123.099
-123.272
-123.517
-123.834
-124.218
-124.669
-125.18
-125.748
-126.367
-127.03
-127.73
-128.457
-129.205
-129.962
-130.721
-131.47
-132.201
-132.903
-133.566
-134.177
-134.727
-135.203
-135.594
-135.888
-136.072
-136.135
-136.066
-135.856
-135.496
-134.976
-134.29
-133.432
-132.396
-131.178
-129.777
-128.19
-126.418
-124.462
-122.328
-120.023
-117.553
-114.931
-112.166
-109.274
-106.271
-103.175
-100.007
-96.788
-93.541
-90.294
-87.072
-83.901
-80.806
-77.812
-74.941
-72.215
-69.658
-67.289
-65.127
-63.194
-61.505
-60.075
-58.911
-58.01
-57.364
-56.964
-56.804
-56.884
-57.205
-57.767
-58.573
-59.629
-60.936
-62.493
-64.284
-66.262
-68.382
-70.611
-72.932
-75.364
-77.917
-80.572
-83.299
-86.047
-88.75
-91.374
-93.828
-95.947
-97.683
-99.109
-100.438
-102.08
-104.376
-107.463
-111.563
-116.953
-123.527
-130.876
-138.209
-144.28
-148.183
-149.499
-147.647
-142.007
-132.63
-120.13
-105.89
-92.042
-80.135
-71.144
-66.525
-67.933
-76.296
-91.961
-114.225
-141.348
-172.216
-204.478
-233.218
-253.704
-261.61
-256.793
-244.293
-225.123
-195.944
-147.358
-64.757
56.719
211.837
388.657
568.757
738.314
889.804
1014.297
1102.089
1143.968
1130.907
1061.903
946.074
793.955
615.438
421.338
220.751
27.592
-137.657
-262.882
-345.056
-390.165
-413.183
-420.151
-408.929
-377.022
-323.676
-260.253
-203.544
-164.29
-145.151
-137.852
-132.055
-123.173
-111.55
-102.367
-99.42
-102.569
-109.838
-117.612
-123.384
-126.237
-125.978
-123.237
-118.661
-112.704
-105.906
-98.829
-92.121
-86.578
-82.626
-80.257
-79.288
-79.339
-80.015
-80.997
-81.911
-82.322
-81.975
-80.787
-78.749
-75.977
-72.577
-68.607
-64.16
-59.348
-54.254
-48.956
-43.528
-38.024
-32.521
-27.108
-21.847
-16.784
-11.949
-7.348
-2.98
1.164
5.109
8.887
12.526
16.049
19.482
22.845
26.169
29.487
32.831
36.233
39.721
43.323
47.061
50.958
55.034
59.308
63.798
68.518
73.486
78.723
84.25
90.086
96.244
102.73
109.552
116.718
124.238
132.124
140.378
148.989
157.944
167.225
176.809
186.663
196.737
206.964
217.276
227.617
237.952
248.26
258.513
268.681
278.731
288.631
298.373
307.955
317.367
326.587
335.597
344.397
353.024
361.549
370.025
378.464
386.838
395.089
403.163
410.995
418.505
425.583
432.078
437.854
442.808
446.862
449.945
451.96
452.771
452.207
450.139
446.496
441.254
434.425
426.023
416.1
404.747
392.118
378.414
363.814
348.454
332.444
315.893
298.935
281.743
264.504
247.371
230.461
213.869
197.676
181.964
166.784
152.146
138.009
124.301
110.979
98.035
85.479
73.324
61.57
50.199
39.195
28.565
18.321
8.469
-0.984
-10.044
-18.701
-26.924
-34.665
-41.871
-48.507
-54.561
-60.031
-64.92
-69.234
-72.982
-76.185
-78.875
-81.084
-82.837
-84.159
-85.073
-85.607
-85.796
-85.679
-85.297
-84.684
-83.874
-82.899
-81.789
-80.574
-79.279
-77.925
-76.528
-75.107
-73.681
-72.267
-70.884
-69.546
-68.267
-67.057
-65.93
-64.893
-63.951
-63.11
-62.37
-61.731
-61.195
-60.758
-60.419
-60.174
-60.019
-59.951
-59.964
-60.054
-60.215
-60.441
-60.725
-61.061
-61.442
-61.862
-62.315
-62.795
-63.297
-63.815
-64.347
-64.887
-65.433
-65.981
-66.529
-67.074
-67.615
-68.152
-68.682
-69.207
-69.726
-70.242
-70.756
-71.268
-71.781
-72.297
-72.815
-73.338
-73.866
-74.399
-74.936
-75.479
-76.026
-76.578
-77.134
-77.693
-78.256
-78.821
-79.389
-79.957
-80.527
-81.095
-81.661
-82.224
-82.782
-83.333
-83.875
-84.406
-84.923
-85.424
-85.907
-86.367
-86.804
-87.213
-87.593
-87.941
-88.256
-88.537
-88.782
-88.993
-89.17
-89.313
-89.426
-89.508
-89.563
-89.592
-89.598
-89.582
-89.546
-89.493
-89.423
-89.34
-89.243
-89.134
-89.015
-88.886
-88.75
-88.607
-88.459
-88.307
-88.154
-88
-87.847
-87.698
-87.555
-87.418
-87.29
-87.172
-87.065
-86.969
-86.884
-86.81
-86.745
-86.69
-86.643
-86.602
-86.566
-86.534
-86.505
-86.48
-86.456
-86.436
-86.419
-86.407
-86.401
-86.404
-86.417
-86.444
-86.486
-86.547
-86.628
-86.733
-86.861
-87.017
-87.2
-87.412
-87.655
-87.927
-88.231
-88.566
-88.933
-89.332
-89.763
-90.226
-90.72
-91.246
-91.803
-92.389
-93.002
-93.639
-94.299
-94.976
-95.667
-96.365
-97.064
-97.757
-98.435
-99.088
-99.708
-100.285
-100.807
-101.263
-101.645
-101.94
-102.14
-102.234
-102.214
-102.071
-101.797
-101.384
-100.827
-100.121
-99.259
-98.238
-97.057
-95.713
-94.205
-92.535
-90.706
-88.722
-86.592
-84.324
-81.929
-79.419
-76.809
-74.114
-71.351
-68.536
-65.684
-62.815
-59.948
-57.103
-54.305
-51.575
-48.936
-46.409
-44.014
-41.771
-39.698
-37.805
-36.102
-34.6
-33.313
-32.267
-31.487
-30.991
-30.795
-30.909
-31.331
-32.058
-33.073
-34.34
-35.819
-37.472
-39.259
-41.155
-43.133
-45.154
-47.164
-49.089
-50.85
-52.385
-53.64
-54.574
-55.178
-55.467
-55.502
-55.397
-55.255
-55.186
-55.303
-55.721
-56.573
-58.004
-60.128
-63.091
-67.131
-72.422
-79.019
-86.786
-95.267
-103.919
-112.267
-119.717
-125.519
-129.067
-130.007
-128.598
-125.941
-123.213
-121.483
-121.905
-125.59
-133.646
-145.621
-158.49
-168.273
-170.705
-165.567
-157.118
-145.848
-128.737
-94.714
-26.153
83.141
229.629
399.024
568.272
725.869
868.087
993.654
1101.298
1177.753
1203.002
1160.753
1044.335
860.815
630.536
379.541
133.843
-82.421
-253.546
-370.823
-433.314
-447.518
-421.959
-370.168
-306.243
-244.079
-195.742
-164.168
-146.483
-134.605
-121.04
-105.107
-89.919
-81.49
-83.705
-94.996
-111.329
-127.594
-139.691
-146.294
-147.524
-143.891
-136.19
-125.419
-112.725
-99.572
-87.644
-77.911
-70.687
-66.063
-63.725
-63.251
-64.253
-66.1
-68.032
-69.553
-70.402
-70.47
-69.833
-68.538
-66.572
-64.001
-60.919
-57.411
-53.554
-49.39
-44.935
-40.23
-35.356
-30.41
-25.502
-20.732
-16.162
-11.829
-7.758
-3.961
-0.441
2.813
5.825
8.637
11.281
13.789
16.189
18.51
20.792
23.078
25.412
27.834
30.377
33.072
35.949
39.04
42.372
45.97
49.854
54.044
58.562
63.432
68.674
74.298
80.318
86.743
93.587
100.867
108.591
116.752
125.338
134.329
143.7
153.422
163.448
173.711
184.145
194.685
205.281
215.907
226.53
237.109
247.608
257.98
268.203
278.283
288.21
297.971
307.557
316.956
326.194
335.339
344.438
353.516
362.565
371.526
380.344
388.971
397.329
405.329
412.844
419.702
425.769
430.947
435.132
438.232
440.115
440.598
439.544
436.863
432.503
426.476
418.798
409.487
398.621
386.322
372.756
358.145
342.667
326.453
309.648
292.385
274.832
257.202
239.663
222.339
205.343
188.75
172.636
157.082
142.115
127.718
113.848
100.427
87.414
74.804
62.589
50.762
39.306
28.185
17.387
6.927
-3.187
-12.948
-22.349
-31.398
-40.076
-48.342
-56.154
-63.463
-70.239
-76.475
-82.165
-87.308
-91.908
-95.972
-99.52
-102.585
-105.193
-107.368
-109.132
-110.503
-111.509
-112.184
-112.56
-112.669
-112.542
-112.204
-111.682
-111.003
-110.188
-109.257
-108.225
-107.107
-105.918
-104.673
-103.388
-102.077
-100.754
-99.432
-98.121
-96.833
-95.577
-94.36
-93.187
-92.063
-90.989
-89.968
-89.003
-88.093
-87.239
-86.44
-85.698
-85.01
-84.376
-83.795
-83.267
-82.789
-82.36
-81.979
-81.645
-81.357
-81.112
-80.91
-80.751
-80.633
-80.555
-80.516
-80.514
-80.547
-80.616
-80.716
-80.848
-81.009
-81.198
-81.413
-81.654
-81.919
-82.209
-82.521
-82.856
-83.212
-83.589
-83.985
-84.398
-84.828
-85.273
-85.729
-86.197
-86.673
-87.156
-87.644
-88.134
-88.626
-89.116
-89.603
-90.087
-90.564
-91.034
-91.496
-91.949
-92.394
-92.829
-93.255
-93.673
-94.082
-94.483
-94.877
-95.265
-95.646
-96.021
-96.392
-96.758
-97.12
-97.479
-97.836
-98.191
-98.544
-98.896
-99.248
-99.6
-99.952
-100.304
-100.656
-101.007
-101.358
-101.706
-102.052
-102.395
-102.733
-103.064
-103.387
-103.7
-104
-104.285
-104.553
-104.8
-105.024
-105.223
-105.394
-105.536
-105.646
-105.724
-105.769
-105.779
-105.754
-105.694
-105.601
-105.474
-105.315
-105.127
-104.912
-104.673
-104.413
-104.136
-103.846
-103.547
-103.243
-102.939
-102.64
-102.348
-102.07
-101.809
-101.57
-101.359
-101.179
-101.035
-100.932
-100.872
-100.858
-100.894
-100.98
-101.118
-101.306
-101.545
-101.833
-102.168
-102.547
-102.966
-103.419
-103.9
-104.402
-104.918
-105.436
-105.948
-106.442
-106.907
-107.333
-107.708
-108.021
-108.261
-108.418
-108.481
-108.441
-108.288
-108.012
-107.603
-107.054
-106.358
-105.51
-104.505
-103.341
-102.019
-100.543
-98.919
-97.154
-95.253
-93.227
-91.088
-88.849
-86.526
-84.134
-81.689
-79.211
-76.721
-74.241
-71.796
-69.404
-67.083
-64.851
-62.723
-60.719
-58.856
-57.141
-55.582
-54.184
-52.957
-51.92
-51.089
-50.469
-50.066
-49.883
-49.919
-50.176
-50.649
-51.309
-52.13
-53.077
-54.111
-55.213
-56.363
-57.542
-58.739
-59.922
-61.049
-62.082
-62.973
-63.674
-64.175
-64.465
-64.516
-64.416
-64.332
-64.532
-65.403
-67.284
-70.375
-74.767
-80.546
-87.597
-95.534
-103.713
-111.114
-116.676
-119.604
-119.474
-116.039
-109.393
-100.194
-89.502
-79.025
-70.834
-66.93
-68.875
-77.727
-94.24
-117.354
-144.018
-170.868
-193.686
-210.421
-223.449
-233.074
-235.903
-223.956
-182.407
-100.298
23.259
180.828
357.444
538.419
714.002
876.633
1015.621
1116.723
1165.929
1152.149
1076.515
948.832
780.025
584.111
370.754
151.684
-54.542
-230.731
-359.101
-431.5
-451.682
-428.791
-380.06
-321.468
-267.238
-228.788
-206.755
-196.595
-188.805
-174.356
-152.969
-129.158
-109.907
-100.138
-99.477
-104.861
-112.591
-120.329
-126.737
-130.701
-131.866
-130.107
-125.591
-119.019
-110.938
-101.805
-92.57
-84.345
-77.804
-73.239
-70.562
-69.358
-69.269
-69.993
-71.034
-71.829
-72.022
-71.428
-70.026
-67.931
-65.22
-61.936
-58.168
-54.026
-49.596
-44.946
-40.122
-35.158
-30.123
-25.109
-20.21
-15.496
-11.012
-6.776
-2.795
0.933
4.422
7.702
10.807
13.766
16.605
19.348
22.02
24.652
27.281
29.945
32.685
35.54
38.542
41.725
45.114
48.734
52.606
56.746
61.172
65.898
70.943
76.321
82.046
88.132
94.585
101.414
108.621
116.205
124.162
132.484
141.159
150.172
159.507
169.14
179.048
189.204
199.575
210.129
220.83
231.639
242.513
253.409
264.282
275.085
285.769
296.284
306.58
316.608
326.317
335.658
344.582
353.041
360.99
368.382
375.175
381.329
386.806
391.568
395.585
398.826
401.267
402.886
403.665
403.592
402.656
400.852
398.181
394.646
390.253
385.016
378.949
372.074
364.414
355.999
346.858
337.029
326.549
315.461
303.807
291.635
278.993
265.93
252.498
238.748
224.735
210.511
196.13
181.646
167.111
152.579
138.1
123.724
109.499
95.472
81.687
68.185
55.005
42.185
29.757
17.752
6.198
-4.882
-15.465
-25.535
-35.078
-44.084
-52.545
-60.458
-67.822
-74.64
-80.916
-86.66
-91.881
-96.592
-100.808
-104.544
-107.819
-110.652
-113.065
-115.078
-116.715
-117.998
-118.953
-119.601
-119.969
-120.079
-119.956
-119.622
-119.102
-118.416
-117.588
-116.638
-115.586
-114.452
-113.251
-112.002
-110.718
-109.412
-108.097
-106.781
-105.475
-104.185
-102.917
-101.677
-100.468
-99.294
-98.157
-97.059
-96.001
-94.983
-94.005
-93.068
-92.17
-91.312
-90.491
-89.708
-88.961
-88.249
-87.572
-86.927
-86.314
-85.73
-85.175
-84.646
-84.142
-83.661
-83.203
-82.766
-82.35
-81.956
-81.585
-81.236
-80.913
-80.617
-80.349
-80.112
-79.908
-79.74
-79.608
-79.516
-79.465
-79.457
-79.492
-79.571
-79.694
-79.862
-80.072
-80.325
-80.618
-80.95
-81.318
-81.722
-82.158
-82.626
-83.123
-83.649
-84.2
-84.776
-85.374
-85.992
-86.629
-87.28
-87.944
-88.616
-89.294
-89.973
-90.65
-91.321
-91.982
-92.629
-93.259
-93.867
-94.45
-95.005
-95.53
-96.022
-96.48
-96.902
-97.289
-97.639
-97.952
-98.23
-98.473
-98.681
-98.854
-98.993
-99.099
-99.171
-99.209
-99.215
-99.187
-99.127
-99.036
-98.914
-98.763
-98.583
-98.377
-98.147
-97.895
-97.624
-97.335
-97.034
-96.721
-96.402
-96.08
-95.757
-95.437
-95.124
-94.819
-94.525
-94.244
-93.978
-93.728
-93.496
-93.284
-93.091
-92.92
-92.772
-92.648
-92.549
-92.476
-92.43
-92.412
-92.422
-92.46
-92.524
-92.615
-92.729
-92.866
-93.022
-93.195
-93.381
-93.574
-93.77
-93.964
-94.148
-94.316
-94.461
-94.574
-94.648
-94.674
-94.646
-94.556
-94.395
-94.157
-93.834
-93.421
-92.911
-92.297
-91.574
-90.735
-89.777
-88.695
-87.488
-86.152
-84.687
-83.096
-81.382
-79.552
-77.613
-75.572
-73.439
-71.224
-68.938
-66.597
-64.216
-61.808
-59.39
-56.979
-54.596
-52.261
-49.998
-47.823
-45.754
-43.806
-41.994
-40.335
-38.842
-37.527
-36.399
-35.467
-34.747
-34.256
-34.006
-34.007
-34.264
-34.773
-35.527
-36.513
-37.706
-39.082
-40.611
-42.261
-44.001
-45.79
-47.594
-49.379
-51.112
-52.763
-54.298
-55.652
-56.76
-57.597
-58.171
-58.555
-58.822
-58.961
-59.038
-59.266
-59.974
-61.545
-64.19
-67.815
-72.337
-77.941
-84.674
-92.293
-100.075
-106.877
-111.943
-115.195
-116.694
-116.142
-113.279
-108.2
-101.997
-96.723
-93.979
-94.748
-99.441
-108.346
-122.133
-139.77
-158.663
-176.441
-189.499
-196.608
-197.101
-184.186
-152.007
-93.631
-3.727
110.138
239.613
376.157
511.687
648.852
788.735
927.036
1052.867
1145.91
1186.616
1160.941
1068.3
918.648
724.058
503.433
273.857
52.243
-136.737
-277.503
-366.154
-405.253
-410.71
-398
-370.421
-332.184
-286.616
-235.044
-187.92
-151.281
-122.97
-103.076
-87.753
-74.91
-68.47
-69.478
-77.566
-91.2
-106.076
-118.736
-127.262
-130.805
-129.696
-124.594
-116.264
-105.677
-93.869
-82.194
-71.975
-63.874
-58.102
-54.524
-52.743
-52.353
-52.94
-53.919
-54.651
-54.768
-54.107
-52.655
-50.523
-47.775
-44.435
-40.583
-36.333
-31.769
-26.958
-21.946
-16.751
-11.434
-6.086
-0.798
4.335
9.249
13.918
18.323
22.458
26.33
29.952
33.345
36.547
39.586
42.489
45.282
47.99
50.644
53.28
55.938
58.658
61.475
64.423
67.532
70.829
74.34
78.092
82.107
86.405
91.002
95.918
101.171
106.785
112.787
119.195
126.015
133.246
140.883
148.909
157.302
166.031
175.04
184.277
193.693
203.24
212.893
222.629
232.415
242.217
251.996
261.727
271.414
281.069
290.692
300.291
309.876
319.468
329.138
338.933
348.876
358.973
369.179
379.432
389.676
399.843
409.841
419.556
428.825
437.467
445.338
452.296
458.203
462.913
466.224
467.971
468.037
466.34
462.858
457.599
450.573
441.819
431.43
419.535
406.313
391.979
376.7
360.635
343.95
326.81
309.429
291.998
274.662
257.536
240.71
224.253
208.239
192.728
177.722
163.207
149.137
135.444
122.098
109.086
96.388
83.992
71.867
59.99
48.365
37.016
25.961
15.222
4.81
-5.26
-14.951
-24.218
-33.015
-41.29
-49.012
-56.166
-62.737
-68.72
-74.114
-78.925
-83.17
-86.879
-90.078
-92.789
-95.036
-96.839
-98.23
-99.243
-99.909
-100.263
-100.336
-100.156
-99.754
-99.157
-98.389
-97.473
-96.429
-95.274
-94.028
-92.709
-91.336
-89.928
-88.501
-87.071
-85.653
-84.26
-82.904
-81.593
-80.336
-79.138
-78.002
-76.933
-75.933
-75.002
-74.141
-73.351
-72.63
-71.978
-71.393
-70.871
-70.412
-70.012
-69.667
-69.375
-69.132
-68.936
-68.784
-68.673
-68.601
-68.565
-68.563
-68.592
-68.651
-68.736
-68.847
-68.98
-69.135
-69.309
-69.502
-69.713
-69.942
-70.19
-70.457
-70.743
-71.05
-71.379
-71.731
-72.105
-72.503
-72.925
-73.371
-73.842
-74.337
-74.857
-75.402
-75.971
-76.565
-77.181
-77.82
-78.48
-79.159
-79.856
-80.568
-81.295
-82.033
-82.781
-83.537
-84.299
-85.064
-85.83
-86.595
-87.356
-88.111
-88.856
-89.589
-90.307
-91.007
-91.688
-92.347
-92.982
-93.59
-94.172
-94.724
-95.246
-95.735
-96.192
-96.613
-96.999
-97.349
-97.661
-97.935
-98.172
-98.372
-98.535
-98.662
-98.754
-98.812
-98.838
-98.833
-98.798
-98.736
-98.648
-98.537
-98.404
-98.253
-98.086
-97.906
-97.715
-97.517
-97.315
-97.11
-96.905
-96.704
-96.508
-96.32
-96.145
-95.984
-95.841
-95.721
-95.626
-95.56
-95.527
-95.531
-95.573
-95.658
-95.787
-95.961
-96.184
-96.456
-96.777
-97.15
-97.573
-98.046
-98.569
-99.141
-99.76
-100.422
-101.127
-101.869
-102.647
-103.455
-104.289
-105.146
-106.019
-106.903
-107.794
-108.684
-109.566
-110.433
-111.277
-112.088
-112.857
-113.574
-114.228
-114.81
-115.31
-115.717
-116.023
-116.219
-116.296
-116.245
-116.061
-115.736
-115.266
-114.644
-113.868
-112.936
-111.846
-110.599
-109.196
-107.641
-105.939
-104.097
-102.126
-100.033
-97.833
-95.538
-93.162
-90.723
-88.236
-85.716
-83.18
-80.645
-78.129
-75.654
-73.241
-70.912
-68.689
-66.592
-64.641
-62.855
-61.251
-59.836
-58.62
-57.611
-56.823
-56.28
-56.005
-56.016
-56.325
-56.942
-57.866
-59.09
-60.597
-62.343
-64.286
-66.383
-68.591
-70.884
-73.232
-75.592
-77.909
-80.11
-82.117
-83.869
-85.309
-86.392
-87.107
-87.47
-87.546
-87.453
-87.297
-87.194
-87.27
-87.641
-88.44
-89.809
-91.854
-94.735
-98.709
-103.949
-110.487
-118.199
-126.662
-135.346
-143.775
-151.29
-157.003
-160.234
-160.704
-158.644
-155
-151.108
-148.205
-147.571
-150.95
-158.75
-169.181
-179.884
-187.371
-190.087
-191.097
-191.592
-188.421
-173.017
-129.437
-45.173
81.591
243.013
422.419
602.747
773.205
927.283
1056.712
1150.598
1195.946
1178.472
1095.566
953.146
759.603
534.306
296.032
64.089
-133.628
-280.763
-372.96
-412.812
-419.449
-409.767
-388.949
-363.366
-332.004
-293.375
-254.61
-217.129
-182.575
-153.953
-129.986
-113.258
-105.362
-105.07
-111.877
-122.47
-133.969
-144.864
-152.721
-156.572
-156.502
-152.473
-145.273
-136.06
-125.532
-114.741
-105.153
-97.518
-92.124
-89.037
-87.809
-87.94
-89.097
-90.727
-92.141
-92.95
-92.943
-92.042
-90.382
-88.048
-85.061
-81.521
-77.541
-73.206
-68.599
-63.77
-58.741
-53.579
-48.377
-43.232
-38.244
-33.477
-28.96
-24.713
-20.738
-17.029
-13.57
-10.329
-7.271
-4.366
-1.584
1.101
3.715
6.294
8.878
11.502
14.208
17.031
20.004
23.16
26.527
30.132
34
38.153
42.615
47.407
52.549
58.054
63.935
70.208
76.889
83.997
91.543
99.522
107.924
116.735
125.935
135.495
145.367
155.483
165.775
176.188
186.686
197.247
207.841
218.435
228.994
239.482
249.889
260.21
270.43
280.521
290.46
300.241
309.896
319.492
329.076
338.655
348.196
357.638
366.922
375.98
384.724
393.04
400.77
407.767
413.925
419.162
423.401
426.543
428.445
428.935
427.879
425.205
420.883
414.923
407.334
398.162
387.499
375.495
362.356
348.259
333.342
317.714
301.486
284.791
267.802
250.709
233.662
216.779
200.155
183.871
168.014
152.634
137.743
123.3
109.232
95.495
82.081
69.001
56.266
43.877
31.817
20.072
8.651
-2.433
-13.169
-23.549
-33.575
-43.235
-52.493
-61.298
-69.589
-77.329
-84.498
-91.09
-97.102
-102.535
-107.393
-111.689
-115.453
-118.709
-121.48
-123.785
-125.641
-127.073
-128.111
-128.792
-129.15
-129.219
-129.028
-128.606
-127.981
-127.181
-126.23
-125.145
-123.945
-122.647
-121.271
-119.837
-118.363
-116.867
-115.366
-113.876
-112.411
-110.983
-109.605
-108.284
-107.026
-105.838
-104.724
-103.688
-102.733
-101.86
-101.07
-100.364
-99.74
-99.198
-98.735
-98.349
-98.037
-97.796
-97.621
-97.51
-97.459
-97.465
-97.523
-97.631
-97.785
-97.981
-98.216
-98.486
-98.787
-99.114
-99.465
-99.836
-100.224
-100.626
-101.039
-101.462
-101.894
-102.331
-102.774
-103.221
-103.671
-104.123
-104.576
-105.029
-105.481
-105.932
-106.382
-106.829
-107.273
-107.713
-108.148
-108.578
-109
-109.414
-109.819
-110.214
-110.598
-110.97
-111.329
-111.675
-112.007
-112.325
-112.627
-112.914
-113.183
-113.435
-113.667
-113.881
-114.074
-114.245
-114.396
-114.525
-114.631
-114.714
-114.774
-114.81
-114.821
-114.808
-114.771
-114.71
-114.624
-114.517
-114.387
-114.238
-114.07
-113.884
-113.682
-113.466
-113.236
-112.995
-112.742
-112.481
-112.212
-111.937
-111.659
-111.377
-111.095
-110.814
-110.535
-110.258
-109.986
-109.718
-109.456
-109.201
-108.955
-108.718
-108.493
-108.282
-108.086
-107.907
-107.748
-107.608
-107.49
-107.392
-107.316
-107.262
-107.23
-107.22
-107.233
-107.27
-107.33
-107.414
-107.523
-107.654
-107.809
-107.985
-108.181
-108.397
-108.631
-108.884
-109.154
-109.441
-109.745
-110.066
-110.402
-110.752
-111.113
-111.481
-111.852
-112.221
-112.581
-112.927
-113.252
-113.551
-113.818
-114.05
-114.242
-114.39
-114.49
-114.538
-114.528
-114.453
-114.306
-114.075
-113.751
-113.324
-112.786
-112.132
-111.356
-110.451
-109.414
-108.245
-106.942
-105.501
-103.916
-102.169
-100.252
-98.17
-95.935
-93.567
-91.098
-88.555
-85.969
-83.385
-80.836
-78.345
-75.922
-73.547
-71.201
-68.881
-66.598
-64.382
-62.259
-60.226
-58.277
-56.405
-54.577
-52.77
-50.941
-49.005
-46.904
-44.623
-42.182
-39.673
-37.207
-34.852
-32.66
-30.668
-28.896
-27.393
-26.194
-25.288
-24.682
-24.389
-24.456
-25.008
-26.158
-27.932
-30.275
-33.041
-36.023
-39.061
-42.059
-44.897
-47.447
-49.685
-51.695
-53.699
-56.066
-59.091
-62.779
-67.06
-71.858
-76.842
-81.705
-86.151
-89.622
-91.708
-92.468
-91.973
-90.345
-88.196
-85.944
-83.8
-82.245
-81.527
-81.581
-82.618
-84.9
-88.388
-93.398
-100.446
-110.172
-122.098
-133.771
-142.676
-146.013
-144.26
-143.085
-144.719
-145.472
-134.591
-91.651
-1.541
135.833
309.551
496.184
673.146
831.856
970.338
1091.019
1192.656
1262.211
1281.969
1235.478
1115.295
926.178
684.646
416.344
149.732
-86.664
-271.733
-394.507
-456.042
-466.467
-436.958
-382.387
-313.802
-241.43
-179.53
-133.012
-103.846
-89.46
-78.662
-67.616
-56.254
-45.921
-43.306
-49.929
-62.784
-78.869
-93.03
-101.91
-105.329
-103.552
-97.388
-88.054
-76.522
-63.822
-51.459
-40.848
-32.639
-27.028
-23.876
-22.711
-23.073
-24.524
-26.415
-28.068
-29.107
-29.352
-28.776
-27.495
-25.564
-23.002
-19.89
-16.33
-12.4
-8.165
-3.666
1.077
6
11.01
16.007
20.89
25.59
30.075
34.32
38.32
42.079
45.607
48.93
52.082
55.094
57.992
60.805
63.555
66.276
69.002
71.772
74.626
77.598
80.717
84.011
87.506
91.226
95.194
99.428
103.946
108.766
113.904
119.376
125.2
131.394
137.978
144.965
152.356
160.145
168.321
176.863
185.743
194.922
204.345
213.963
223.725
233.586
243.511
253.462
263.406
273.305
283.114
292.805
302.374
311.822
321.16
330.407
339.581
348.718
357.877
367.1
376.409
385.808
395.272
404.765
414.233
423.614
432.841
441.81
450.389
458.426
465.748
472.188
477.592
481.79
484.593
485.845
485.422
483.236
479.246
473.437
465.819
456.431
445.334
432.636
418.484
403.058
386.569
369.219
351.195
332.698
313.939
295.11
276.38
257.884
239.724
221.987
204.749
188.066
171.979
156.498
141.607
127.269
113.425
100.03
87.056
74.47
62.24
50.344
38.766
27.513
16.607
6.07
-4.083
-13.833
-23.16
-32.035
-40.425
-48.293
-55.598
-62.314
-68.425
-73.926
-78.815
-83.1
-86.795
-89.925
-92.526
-94.633
-96.275
-97.486
-98.297
-98.743
-98.861
-98.691
-98.269
-97.631
-96.81
-95.838
-94.745
-93.557
-92.301
-90.998
-89.667
-88.327
-86.996
-85.694
-84.436
-83.239
-82.114
-81.073
-80.127
-79.282
-78.543
-77.914
-77.395
-76.985
-76.683
-76.485
-76.387
-76.384
-76.47
-76.636
-76.877
-77.184
-77.549
-77.963
-78.418
-78.906
-79.42
-79.951
-80.492
-81.038
-81.582
-82.118
-82.641
-83.147
-83.632
-84.092
-84.525
-84.93
-85.304
-85.649
-85.965
-86.253
-86.515
-86.755
-86.976
-87.182
-87.376
-87.564
-87.751
-87.941
-88.139
-88.351
-88.581
-88.833
-89.112
-89.421
-89.765
-90.146
-90.566
-91.028
-91.532
-92.08
-92.673
-93.31
-93.991
-94.714
-95.479
-96.283
-97.123
-97.996
-98.897
-99.823
-100.768
-101.727
-102.694
-103.663
-104.628
-105.582
-106.518
-107.432
-108.315
-109.162
-109.966
-110.722
-111.425
-112.068
-112.649
-113.163
-113.608
-113.979
-114.276
-114.498
-114.642
-114.709
-114.699
-114.612
-114.449
-114.213
-113.904
-113.526
-113.083
-112.577
-112.014
-111.399
-110.736
-110.032
-109.292
-108.524
-107.732
-106.925
-106.108
-105.289
-104.476
-103.674
-102.892
-102.135
-101.411
-100.726
-100.085
-99.494
-98.958
-98.48
-98.066
-97.717
-97.439
-97.232
-97.101
-97.046
-97.069
-97.172
-97.355
-97.619
-97.961
-98.382
-98.88
-99.452
-100.095
-100.807
-101.583
-102.421
-103.315
-104.26
-105.252
-106.284
-107.351
-108.445
-109.558
-110.685
-111.817
-112.945
-114.062
-115.16
-116.23
-117.265
-118.256
-119.195
-120.074
-120.882
-121.613
-122.257
-122.804
-123.247
-123.577
-123.787
-123.869
-123.816
-123.622
-123.282
-122.79
-122.143
-121.336
-120.367
-119.234
-117.935
-116.471
-114.844
-113.055
-111.11
-109.014
-106.774
-104.401
-101.908
-99.307
-96.612
-93.839
-91.005
-88.129
-85.228
-82.316
-79.41
-76.529
-73.692
-70.918
-68.232
-65.651
-63.195
-60.883
-58.733
-56.763
-54.987
-53.408
-52.033
-50.87
-49.934
-49.252
-48.847
-48.733
-48.921
-49.414
-50.212
-51.309
-52.685
-54.292
-56.083
-58.011
-60.035
-62.134
-64.275
-66.414
-68.484
-70.4
-72.084
-73.483
-74.552
-75.255
-75.577
-75.534
-75.191
-74.667
-74.097
-73.616
-73.356
-73.452
-74.053
-75.288
-77.33
-80.41
-84.676
-90.21
-96.938
-104.507
-112.512
-120.562
-128.07
-134.351
-138.846
-141.039
-140.965
-139.569
-137.807
-136.578
-137.083
-140.245
-146.757
-157.622
-171.687
-184.664
-192.6
-191.113
-177.98
-156.967
-130.197
-96.547
-52.255
14.82
116.187
255.702
432.112
630.856
830.039
1009.157
1145.417
1225.063
1241.438
1190.443
1078.454
912.814
704.142
470.438
229.888
4.689
-183.723
-320.961
-402.385
-434.505
-429.471
-404.729
-374.093
-343.91
-319.716
-298.589
-274.395
-246.528
-213.219
-177.608
-147.958
-127.324
-116.385
-114.041
-115.902
-119.089
-122.785
-125.734
-126.491
-124.37
-119.063
-110.756
-100.502
-89.386
-78.053
-67.45
-58.845
-52.87
-49.757
-49.454
-51.373
-54.903
-59.546
-64.64
-69.494
-73.709
-77.068
-79.459
-80.923
-81.439
-80.929
-79.413
-76.952
-73.591
-69.384
-64.394
-58.704
-52.477
-45.955
-39.341
-32.783
-26.372
-20.148
-14.149
-8.416
-2.975
2.169
7.025
11.606
15.914
19.949
23.73
27.302
30.735
34.124
37.544
41.053
44.699
48.517
52.538
56.795
61.306
66.081
71.133
76.48
82.142
88.143
94.491
101.193
108.253
115.674
123.464
131.624
140.141
149.003
158.194
167.689
177.457
187.452
197.605
207.859
218.171
228.508
238.851
249.177
259.455
269.659
279.767
289.755
299.614
309.32
318.834
328.147
337.264
346.22
355.094
363.919
372.684
381.36
389.886
398.189
406.197
413.803
420.87
427.279
432.923
437.719
441.624
444.559
446.422
447.086
446.388
444.217
440.529
435.298
428.533
420.284
410.616
399.66
387.607
374.617
360.826
346.348
331.259
315.667
299.707
283.526
267.294
251.149
235.192
219.518
204.209
189.312
174.853
160.809
147.099
133.679
120.532
107.654
95.072
82.797
70.82
59.142
47.759
36.673
25.891
15.416
5.241
-4.62
-14.144
-23.288
-31.987
-40.198
-47.896
-55.068
-61.711
-67.827
-73.417
-78.491
-83.075
-87.186
-90.843
-94.061
-96.853
-99.235
-101.233
-102.873
-104.188
-105.208
-105.957
-106.462
-106.746
-106.831
-106.739
-106.486
-106.084
-105.548
-104.893
-104.136
-103.294
-102.385
-101.422
-100.421
-99.395
-98.358
-97.322
-96.296
-95.287
-94.3
-93.342
-92.418
-91.535
-90.698
-89.91
-89.171
-88.48
-87.839
-87.248
-86.705
-86.209
-85.757
-85.344
-84.971
-84.642
-84.362
-84.133
-83.954
-83.818
-83.723
-83.673
-83.674
-83.735
-83.859
-84.043
-84.288
-84.599
-84.981
-85.444
-85.98
-86.569
-87.193
-87.831
-88.478
-89.149
-89.838
-90.525
-91.174
-91.719
-92.132
-92.42
-92.597
-92.694
-92.709
-92.581
-92.324
-92.032
-91.746
-91.49
-91.102
-90.19
-88.579
-86.352
-83.683
-80.883
-78.233
-75.877
-74.428
-74.98
-78.271
-84.659
-93.833
-104.688
-116.223
-127.694
-137.836
-144.987
-147.702
-144.728
-136.123
-123.397
-108.098
-91.723
-75.918
-62.232
-52.317
-47.943
-49.51
-55.979
-65.972
-77.769
-89.959
-101.668
-111.779
-118.976
-122.746
-123.343
-121.485
-118.385
-114.827
-111.069
-107.494
-104.52
-102.383
-101.195
-100.767
-100.604
-100.452
-100.274
-100.044
-99.833
-99.663
-99.431
-99.128
-98.819
-98.515
-98.262
-98.095
-97.918
-97.64
-97.408
-97.403
-97.53
-97.802
-98.244
-98.467
-99.502
-102.355
-105.605
-108.825
-109.387
-104.146
-96.587
-89.04
-84.971
-89.132
-97.318
-105.956
-112.593
-113.184
-110.607
-107.778
-105.338
-105.059
-105.896
-106.508
-107.137
-107.603
-107.983
-108.535
-109.071
-109.437
-109.669
-109.767
-109.705
-109.477
-109.084
-108.522
-107.809
-106.966
-105.976
-104.823
-103.507
-102.026
-100.381
-98.578
-96.623
-94.521
-92.286
-89.931
-87.474
-84.93
-82.317
-79.654
-76.954
-74.236
-71.517
-68.816
-66.156
-63.559
-61.046
-58.637
-56.352
-54.209
-52.228
-50.424
-48.801
-47.367
-46.131
-45.109
-44.334
-43.83
-43.611
-43.69
-44.074
-44.763
-45.752
-47.02
-48.518
-50.196
-52.007
-53.908
-55.878
-57.882
-59.87
-61.778
-63.522
-65.03
-66.253
-67.147
-67.675
-67.829
-67.628
-67.145
-66.498
-65.809
-65.211
-64.84
-64.829
-65.325
-66.45
-68.356
-71.277
-75.388
-80.763
-87.308
-94.678
-102.463
-110.287
-117.631
-123.772
-128.053
-129.971
-129.624
-127.865
-125.527
-123.558
-123.047
-124.971
-130.641
-139.925
-150.17
-158.275
-160.969
-158.353
-154.433
-148.813
-137.357
-108.967
-47.217
52.656
187.137
343.769
502.529
654.791
797.366
927.775
1043.2
1129.57
1167.462
1141.618
1046.264
887.236
680.736
448.636
212.26
-6.115
-187.361
-320.686
-403.292
-441.42
-445.451
-424.683
-385.503
-334.049
-279.274
-229.467
-191.682
-167.512
-150.991
-137.35
-124.268
-111.937
-104.909
-105.451
-111.894
-121.915
-131.696
-137.863
-139.688
-137.353
-131.352
-122.749
-112.614
-101.645
-90.838
-81.492
-74.186
-69.119
-66.336
-65.399
-65.829
-67.283
-69.193
-70.897
-72.032
-72.391
-71.881
-70.611
-68.631
-65.956
-62.683
-58.926
-54.772
-50.304
-45.569
-40.588
-35.427
-30.178
-24.942
-19.824
-14.887
-10.166
-5.684
-1.448
2.54
6.291
9.835
13.21
16.448
19.576
22.618
25.6
28.557
31.53
34.557
37.676
40.918
44.308
47.871
51.63
55.606
59.818
64.283
69.015
74.035
79.368
85.034
91.047
97.416
104.142
111.231
118.699
126.554
134.793
143.415
152.408
161.751
171.427
181.402
191.62
202.019
212.533
223.096
233.667
244.214
254.712
265.126
275.406
285.498
295.354
304.939
314.236
323.245
331.989
340.511
348.856
357.081
365.289
373.487
381.583
389.396
396.566
402.802
408.088
412.436
415.869
418.668
421.119
423.623
427.002
431.8
437.866
444.848
452.043
458.252
462.569
464.055
461.24
453.126
439.533
420.654
397.447
371.508
343.963
315.888
288.756
263.585
240.927
221.053
203.491
187.345
172.147
157.547
143.093
128.659
114.16
99.555
85.209
71.555
58.771
46.945
36.025
25.782
16.148
7.119
-1.516
-9.892
-18.139
-26.419
-34.571
-42.377
-49.893
-57.176
-64.073
-70.526
-76.268
-80.934
-84.803
-88.177
-91.003
-93.346
-95.422
-97.325
-99.491
-102.428
-105.742
-109.021
-112.205
-115.072
-117.473
-119.395
-120.458
-120.274
-119.207
-117.618
-115.66
-113.607
-111.503
-109.311
-107.26
-105.562
-104.095
-102.761
-101.503
-100.212
-98.956
-97.818
-96.765
-95.78
-94.883
-94.074
-93.372
-92.803
-92.337
-91.946
-91.621
-91.346
-91.125
-90.967
-90.868
-90.827
-90.838
-90.898
-91
-91.143
-91.318
-91.521
-91.747
-91.988
-92.244
-92.51
-92.785
-93.066
-93.35
-93.63
-93.904
-94.166
-94.415
-94.649
-94.867
-95.068
-95.252
-95.421
-95.576
-95.719
-95.853
-95.981
-96.106
-96.229
-96.355
-96.486
-96.625
-96.774
-96.937
-97.113
-97.307
-97.519
-97.752
-98.007
-98.286
-98.589
-98.918
-99.272
-99.652
-100.057
-100.487
-100.94
-101.416
-101.913
-102.429
-102.964
-103.514
-104.078
-104.653
-105.236
-105.824
-106.414
-107.002
-107.583
-108.155
-108.714
-109.256
-109.776
-110.273
-110.742
-111.18
-111.584
-111.953
-112.284
-112.575
-112.824
-113.031
-113.194
-113.313
-113.388
-113.42
-113.41
-113.359
-113.269
-113.142
-112.98
-112.784
-112.557
-112.302
-112.019
-111.712
-111.383
-111.034
-110.669
-110.29
-109.901
-109.507
-109.11
-108.717
-108.331
-107.955
-107.596
-107.255
-106.937
-106.647
-106.386
-106.159
-105.969
-105.819
-105.712
-105.651
-105.637
-105.671
-105.755
-105.888
-106.069
-106.299
-106.577
-106.9
-107.269
-107.682
-108.14
-108.642
-109.187
-109.771
-110.393
-111.05
-111.736
-112.446
-113.172
-113.904
-114.636
-115.359
-116.066
-116.75
-117.403
-118.018
-118.591
-119.116
-119.587
-119.994
-120.326
-120.571
-120.716
-120.751
-120.664
-120.443
-120.081
-119.566
-118.894
-118.062
-117.062
-115.888
-114.529
-112.969
-111.2
-109.222
-107.041
-104.672
-102.142
-99.484
-96.746
-93.981
-91.231
-88.533
-85.913
-83.379
-80.939
-78.59
-76.329
-74.17
-72.125
-70.196
-68.391
-66.696
-65.072
-63.475
-61.831
-60.047
-58.058
-55.802
-53.215
-50.299
-47.102
-43.717
-40.285
-36.928
-33.693
-30.64
-27.866
-25.401
-23.245
-21.365
-19.552
-17.648
-15.75
-13.966
-12.433
-11.568
-11.681
-13.067
-16.542
-22.808
-31.997
-44.223
-59.124
-75.443
-92.193
-108.321
-121.823
-131.103
-135.264
-133.321
-125.445
-113.287
-98.202
-81.94
-67.362
-56.467
-50.693
-51.574
-59.032
-71.598
-88.007
-106.285
-123.536
-137.844
-147.794
-152.355
-152.076
-148.167
-141.758
-134.555
-128.921
-126.945
-128.365
-129.962
-127.937
-118.07
-101.214
-84.134
-67.733
-49.082
-17.4
48.022
156.26
306.704
489.611
679.467
857.786
1011.587
1126.781
1199.83
1221.428
1179.354
1072.662
901.534
679.455
432.546
183.829
-39.725
-220.024
-352.53
-434.338
-473.493
-477.436
-446.724
-389.758
-313.29
-228.752
-157.249
-108.851
-86.519
-85.688
-90.509
-92.292
-89.233
-83.296
-82.109
-88.17
-99.207
-111.798
-120.866
-124.306
-122.729
-116.913
-108.178
-97.723
-86.251
-74.953
-65.224
-57.697
-52.552
-49.691
-48.695
-49.156
-50.704
-52.754
-54.618
-55.905
-56.429
-56.145
-55.157
-53.512
-51.221
-48.366
-45.057
-41.381
-37.406
-33.175
-28.702
-24.045
-19.295
-14.544
-9.895
-5.411
-1.124
2.945
6.786
10.4
13.8
17.012
20.074
23.021
25.88
28.677
31.438
34.198
36.995
39.865
42.845
45.965
49.254
52.739
56.446
60.399
64.618
69.123
73.928
79.054
84.521
90.341
96.524
103.078
110.009
117.332
125.061
133.201
141.742
150.672
159.971
169.617
179.578
189.803
200.221
210.765
221.378
232.023
242.68
253.318
263.907
274.412
284.798
295.058
305.186
315.171
324.988
334.618
344.059
353.347
362.553
371.73
380.886
389.991
398.985
407.812
416.402
424.671
432.507
439.755
446.273
451.955
456.722
460.498
463.185
464.64
464.689
463.201
460.101
455.363
448.997
441.018
431.474
420.457
408.121
394.667
380.273
365.075
349.182
332.702
315.77
298.556
281.25
264.004
246.934
230.136
213.688
197.673
182.14
167.098
152.506
138.29
124.408
110.85
97.628
84.754
72.23
60.038
48.164
36.616
25.408
14.55
4.05
-6.093
-15.864
-25.229
-34.135
-42.522
-50.351
-57.605
-64.274
-70.359
-75.858
-80.775
-85.125
-88.936
-92.233
-95.04
-97.375
-99.257
-100.71
-101.768
-102.466
-102.84
-102.924
-102.747
-102.341
-101.733
-100.95
-100.018
-98.956
-97.781
-96.512
-95.167
-93.767
-92.332
-90.878
-89.422
-87.981
-86.569
-85.201
-83.887
-82.637
-81.458
-80.356
-79.338
-78.407
-77.566
-76.817
-76.162
-75.599
-75.13
-74.752
-74.464
-74.263
-74.145
-74.109
-74.15
-74.264
-74.448
-74.698
-75.011
-75.384
-75.814
-76.298
-76.832
-77.414
-78.041
-78.707
-79.412
-80.15
-80.917
-81.712
-82.529
-83.367
-84.223
-85.094
-85.978
-86.872
-87.775
-88.685
-89.599
-90.515
-91.433
-92.349
-93.263
-94.172
-95.077
-95.975
-96.865
-97.745
-98.614
-99.47
-100.311
-101.136
-101.941
-102.725
-103.487
-104.224
-104.935
-105.619
-106.274
-106.899
-107.494
-108.058
-108.59
-109.09
-109.557
-109.992
-110.395
-110.765
-111.103
-111.41
-111.686
-111.931
-112.147
-112.334
-112.492
-112.622
-112.725
-112.8
-112.849
-112.872
-112.87
-112.845
-112.797
-112.727
-112.638
-112.529
-112.402
-112.258
-112.098
-111.923
-111.732
-111.527
-111.308
-111.075
-110.83
-110.571
-110.301
-110.019
-109.725
-109.42
-109.103
-108.777
-108.44
-108.094
-107.739
-107.377
-107.01
-106.638
-106.263
-105.888
-105.514
-105.143
-104.777
-104.417
-104.067
-103.728
-103.403
-103.093
-102.802
-102.532
-102.287
-102.068
-101.88
-101.725
-101.606
-101.527
-101.491
-101.499
-101.555
-101.662
-101.821
-102.034
-102.303
-102.629
-103.012
-103.451
-103.947
-104.497
-105.099
-105.752
-106.451
-107.194
-107.975
-108.79
-109.633
-110.5
-111.383
-112.276
-113.169
-114.056
-114.928
-115.777
-116.591
-117.363
-118.08
-118.733
-119.31
-119.801
-120.195
-120.478
-120.642
-120.674
-120.566
-120.308
-119.89
-119.306
-118.547
-117.607
-116.482
-115.169
-113.664
-111.967
-110.078
-108.001
-105.739
-103.299
-100.688
-97.914
-94.99
-91.929
-88.746
-85.461
-82.095
-78.672
-75.216
-71.75
-68.296
-64.877
-61.516
-58.235
-55.055
-51.999
-49.087
-46.343
-43.794
-41.465
-39.373
-37.531
-35.936
-34.582
-33.471
-32.608
-32.008
-31.687
-31.65
-31.908
-32.476
-33.36
-34.563
-36.063
-37.795
-39.704
-41.746
-43.898
-46.183
-48.605
-51.126
-53.687
-56.192
-58.545
-60.711
-62.624
-64.152
-65.277
-66.072
-66.718
-67.633
-69.173
-71.407
-74.388
-78.117
-82.289
-86.6
-90.678
-93.788
-95.434
-95.67
-94.566
-92.37
-89.855
-87.547
-85.876
-85.615
-87.043
-89.823
-93.955
-99.423
-105.545
-112.31
-119.999
-128.353
-138.114
-149.31
-159.076
-164.506
-163.434
-155.568
-145.883
-138.2
-129.714
-111.716
-67.789
17.186
146.342
313.786
504.396
697.282
878.632
1036.279
1156.446
1231.599
1250.445
1204.056
1095.924
929.936
717.273
477.691
230.062
-0.491
-188.803
-321.41
-397.297
-427.765
-430.671
-418.276
-392.04
-350.58
-294.989
-233.1
-179.504
-143.803
-126.652
-121.143
-117.53
-110.676
-101.142
-93.316
-90.424
-92.91
-99.076
-105.415
-109.701
-111.053
-109.301
-105.308
-99.831
-93.102
-85.511
-77.587
-69.916
-63.42
-58.63
-55.504
-53.866
-53.367
-53.621
-54.317
-55.08
-55.416
-55.031
-53.833
-51.8
-49.057
-45.715
-41.827
-37.488
-32.81
-27.873
-22.75
-17.511
-12.21
-6.925
-1.752
3.244
8.013
12.523
16.767
20.743
24.465
27.963
31.272
34.424
37.445
40.359
43.189
45.97
48.736
51.524
54.37
57.306
60.362
63.566
66.943
70.513
74.295
78.307
82.562
87.082
91.886
96.994
102.428
108.204
114.331
120.819
127.674
134.903
142.513
150.506
158.866
167.58
176.626
185.972
195.588
205.43
215.438
225.552
235.713
245.864
255.967
265.989
275.89
285.631
295.167
304.467
313.532
322.374
331
339.423
347.654
355.711
363.655
371.537
379.395
387.256
395.098
402.888
410.594
418.192
425.645
432.887
439.802
446.226
452.012
457.021
461.121
464.169
465.975
466.351
465.128
462.18
457.446
450.89
442.482
432.183
419.97
405.881
390.03
372.614
353.827
333.854
312.878
291.115
268.836
246.341
223.932
201.845
180.259
159.343
139.258
120.197
102.349
85.837
70.709
56.942
44.497
33.347
23.468
14.781
7.154
0.417
-5.625
-11.102
-16.094
-20.693
-24.983
-29.084
-33.133
-37.211
-41.35
-45.557
-49.826
-54.163
-58.583
-63.055
-67.509
-71.854
-75.981
-79.83
-83.378
-86.595
-89.459
-91.936
-93.982
-95.587
-96.769
-97.546
-97.936
-97.955
-97.612
-96.943
-96.006
-94.864
-93.586
-92.225
-90.81
-89.377
-87.955
-86.573
-85.258
-84.023
-82.871
-81.809
-80.849
-80.003
-79.282
-78.691
-78.225
-77.88
-77.65
-77.53
-77.519
-77.611
-77.804
-78.093
-78.477
-78.957
-79.534
-80.204
-80.965
-81.808
-82.728
-83.717
-84.767
-85.87
-87.016
-88.197
-89.404
-90.63
-91.866
-93.105
-94.338
-95.558
-96.756
-97.925
-99.058
-100.147
-101.187
-102.174
-103.102
-103.968
-104.77
-105.506
-106.174
-106.775
-107.309
-107.776
-108.178
-108.516
-108.792
-109.011
-109.176
-109.291
-109.361
-109.392
-109.388
-109.355
-109.3
-109.228
-109.145
-109.056
-108.966
-108.882
-108.809
-108.751
-108.715
-108.704
-108.723
-108.777
-108.867
-108.999
-109.172
-109.39
-109.653
-109.96
-110.312
-110.708
-111.145
-111.621
-112.132
-112.676
-113.247
-113.841
-114.453
-115.076
-115.706
-116.336
-116.961
-117.575
-118.173
-118.748
-119.298
-119.815
-120.297
-120.739
-121.138
-121.488
-121.789
-122.037
-122.229
-122.364
-122.442
-122.461
-122.421
-122.323
-122.168
-121.957
-121.693
-121.379
-121.018
-120.614
-120.171
-119.695
-119.192
-118.668
-118.129
-117.581
-117.033
-116.49
-115.96
-115.448
-114.961
-114.504
-114.081
-113.697
-113.357
-113.063
-112.818
-112.623
-112.481
-112.393
-112.357
-112.375
-112.443
-112.562
-112.728
-112.939
-113.19
-113.477
-113.797
-114.142
-114.507
-114.887
-115.273
-115.658
-116.033
-116.389
-116.716
-117.005
-117.245
-117.425
-117.534
-117.563
-117.502
-117.341
-117.071
-116.685
-116.174
-115.532
-114.755
-113.836
-112.773
-111.562
-110.203
-108.695
-107.039
-105.238
-103.295
-101.216
-99.008
-96.681
-94.246
-91.715
-89.1
-86.416
-83.679
-80.905
-78.109
-75.304
-72.509
-69.739
-67.015
-64.357
-61.785
-59.32
-56.979
-54.782
-52.745
-50.884
-49.206
-47.718
-46.426
-45.342
-44.486
-43.88
-43.536
-43.465
-43.675
-44.164
-44.928
-45.947
-47.183
-48.597
-50.148
-51.801
-53.535
-55.321
-57.127
-58.903
-60.583
-62.103
-63.409
-64.453
-65.191
-65.616
-65.742
-65.632
-65.395
-65.127
-64.925
-64.898
-65.141
-65.763
-66.881
-68.583
-70.998
-74.358
-78.833
-84.472
-91.194
-98.642
-106.34
-113.842
-120.532
-125.579
-128.316
-128.429
-126.048
-121.959
-117.398
-113.64
-112.06
-114.486
-121.38
-130.931
-140.939
-148.43
-152.757
-158.094
-166.138
-173.263
-169.315
-136.146
-59.925
61.09
217.826
392.024
566.193
730.505
879.888
1007.229
1101.387
1148.373
1133.754
1055.053
919.588
736.943
524.046
296.695
71.027
-128.026
-280.526
-376.562
-416.112
-415.537
-395.622
-368.322
-339.48
-307.296
-266.024
-217.36
-166.991
-121.16
-87.27
-68.011
-61.962
-67.144
-80.509
-98.526
-118.322
-137.041
-151.573
-160.293
-162.914
-159.623
-151.419
-139.78
-126.084
-111.919
-99.103
-88.635
-80.832
-75.752
-72.973
-71.986
-72.362
-73.456
-74.53
-75.125
-75.01
-74.106
-72.516
-70.302
-67.466
-64.083
-60.244
-56.026
-51.496
-46.687
-41.613
-36.319
-30.88
-25.39
-19.948
-14.639
-9.519
-4.621
0.033
4.433
8.577
12.473
16.146
19.626
22.945
26.129
29.204
32.198
35.148
38.09
41.066
44.109
47.246
50.502
53.905
57.478
61.248
65.237
69.463
73.948
78.713
83.78
89.171
94.902
100.981
107.419
114.226
121.416
129.003
136.993
145.372
154.127
163.238
172.676
182.404
192.365
202.482
212.695
222.961
233.248
243.542
253.821
264.055
274.221
284.292
294.246
304.07
313.737
323.206
332.464
341.517
350.402
359.205
367.957
376.645
385.23
393.636
401.782
409.595
416.966
423.761
429.878
435.226
439.76
443.479
446.324
448.207
448.999
448.51
446.612
443.241
438.341
431.914
423.994
414.619
403.909
392.037
379.117
365.228
350.395
334.58
317.833
300.256
281.988
263.241
244.202
225.039
205.954
187.109
168.619
150.582
133.012
115.873
99.2
83.065
67.592
52.964
39.287
26.617
14.995
4.396
-5.227
-13.943
-21.89
-29.192
-35.919
-42.127
-47.813
-52.946
-57.548
-61.666
-65.365
-68.765
-71.945
-74.962
-77.881
-80.727
-83.495
-86.154
-88.617
-90.802
-92.673
-94.208
-95.416
-96.325
-96.943
-97.278
-97.348
-97.143
-96.663
-95.913
-94.886
-93.595
-92.071
-90.358
-88.526
-86.642
-84.755
-82.903
-81.117
-79.413
-77.814
-76.33
-74.962
-73.713
-72.593
-71.609
-70.771
-70.087
-69.553
-69.165
-68.913
-68.784
-68.769
-68.857
-69.038
-69.304
-69.648
-70.065
-70.555
-71.113
-71.735
-72.414
-73.145
-73.919
-74.73
-75.57
-76.43
-77.302
-78.18
-79.057
-79.926
-80.784
-81.624
-82.441
-83.231
-83.99
-84.715
-85.403
-86.052
-86.66
-87.226
-87.752
-88.237
-88.683
-89.092
-89.468
-89.812
-90.128
-90.419
-90.687
-90.935
-91.166
-91.382
-91.585
-91.777
-91.962
-92.142
-92.318
-92.492
-92.668
-92.847
-93.029
-93.217
-93.412
-93.614
-93.825
-94.047
-94.279
-94.524
-94.781
-95.052
-95.336
-95.634
-95.944
-96.265
-96.596
-96.935
-97.279
-97.628
-97.978
-98.327
-98.673
-99.014
-99.348
-99.672
-99.985
-100.285
-100.571
-100.841
-101.095
-101.334
-101.556
-101.762
-101.954
-102.132
-102.296
-102.449
-102.589
-102.719
-102.839
-102.95
-103.053
-103.149
-103.239
-103.325
-103.409
-103.493
-103.578
-103.667
-103.762
-103.866
-103.981
-104.109
-104.254
-104.418
-104.604
-104.814
-105.053
-105.32
-105.62
-105.954
-106.322
-106.726
-107.164
-107.637
-108.143
-108.682
-109.251
-109.848
-110.472
-111.12
-111.789
-112.477
-113.181
-113.896
-114.619
-115.347
-116.073
-116.795
-117.505
-118.2
-118.874
-119.521
-120.134
-120.709
-121.237
-121.712
-122.126
-122.471
-122.74
-122.924
-123.015
-123.006
-122.889
-122.656
-122.304
-121.825
-121.215
-120.47
-119.586
-118.561
-117.393
-116.08
-114.622
-113.018
-111.27
-109.38
-107.352
-105.19
-102.9
-100.489
-97.967
-95.348
-92.641
-89.862
-87.024
-84.141
-81.228
-78.304
-75.387
-72.495
-69.648
-66.863
-64.163
-61.57
-59.106
-56.79
-54.636
-52.655
-50.86
-49.26
-47.864
-46.679
-45.712
-44.968
-44.458
-44.191
-44.171
-44.403
-44.887
-45.61
-46.558
-47.711
-49.034
-50.503
-52.086
-53.756
-55.482
-57.221
-58.933
-60.575
-62.105
-63.51
-64.757
-65.794
-66.564
-67.03
-67.196
-67.164
-67.012
-66.736
-66.428
-66.243
-66.479
-67.646
-70.021
-73.572
-78.298
-84.234
-91.256
-99.155
-107.172
-113.808
-118.051
-119.527
-117.997
-113.483
-106.157
-96.339
-85.417
-76.016
-70.415
-70.116
-76.115
-89.015
-107.98
-130.554
-153.576
-172.117
-184.632
-193.756
-197.928
-193.198
-169.093
-109.038
-7.74
130.913
294.175
461.91
624.402
778.304
921.786
1050.402
1148.307
1196.183
1177.261
1087.518
936.247
736.333
507.602
268.296
36.048
-163.252
-311.325
-401.836
-436.571
-432.447
-407.694
-368.46
-321.016
-269.109
-213.71
-165.584
-130.397
-106.078
-92.945
-85.835
-81.621
-83.713
-91.871
-104.727
-120.411
-133.842
-141.702
-143.428
-138.992
-129.364
-116.155
-100.72
-84.538
-69.498
-56.969
-47.525
-41.448
-38.562
-38.336
-40.26
-43.613
-47.498
-51.303
-54.655
-57.334
-59.329
-60.639
-61.225
-61.113
-60.348
-58.921
-56.801
-53.94
-50.317
-45.981
-41.05
-35.7
-30.097
-24.382
-18.692
-13.119
-7.726
-2.561
2.364
7.06
11.527
15.761
19.751
23.478
26.954
30.208
33.291
36.277
39.233
42.22
45.301
48.526
51.93
55.543
59.377
63.433
67.724
72.265
77.078
82.19
87.623
93.392
99.51
105.985
112.824
120.027
127.588
135.5
143.757
152.357
161.304
170.595
180.214
190.137
200.327
210.74
221.323
232.019
242.765
253.502
264.174
274.74
285.175
295.455
305.56
315.452
325.073
334.377
343.328
351.902
360.089
367.895
375.334
382.428
389.2
395.663
401.824
407.663
413.139
418.169
422.628
426.442
429.577
432.018
433.779
434.79
434.876
433.977
432.144
429.408
425.86
421.402
415.656
408.548
400.274
390.777
379.88
367.256
352.273
334.972
316.185
296.211
275.053
253.317
231.505
210.317
191.329
173.696
155.61
138.183
121.633
108.465
101.964
98.032
93.432
84.435
66.633
45.039
23.863
5.945
-4.497
-10.568
-15.153
-18.985
-24.301
-30.2
-35.463
-40.454
-44.888
-48.861
-52.781
-56.55
-60.074
-63.447
-66.664
-69.698
-72.571
-75.255
-77.716
-79.942
-81.918
-83.615
-85.025
-86.165
-87.056
-87.726
-88.184
-88.415
-88.407
-88.154
-87.666
-86.966
-86.087
-85.075
-83.973
-82.826
-81.674
-80.546
-79.463
-78.436
-77.468
-76.556
-75.7
-74.906
-74.179
-73.527
-72.95
-72.448
-72.016
-71.646
-71.33
-71.058
-70.82
-70.609
-70.421
-70.252
-70.103
-69.975
-69.872
-69.792
-69.736
-69.702
-69.689
-69.693
-69.714
-69.747
-69.791
-69.845
-69.908
-69.98
-70.061
-70.15
-70.248
-70.355
-70.472
-70.6
-70.741
-70.895
-71.065
-71.252
-71.46
-71.689
-71.941
-72.218
-72.52
-72.849
-73.203
-73.582
-73.984
-74.408
-74.851
-75.311
-75.784
-76.267
-76.758
-77.252
-77.748
-78.242
-78.731
-79.211
-79.68
-80.135
-80.573
-80.99
-81.386
-81.756
-82.099
-82.412
-82.694
-82.942
-83.156
-83.332
-83.472
-83.572
-83.633
-83.656
-83.64
-83.587
-83.498
-83.376
-83.224
-83.044
-82.841
-82.619
-82.382
-82.135
-81.884
-81.633
-81.388
-81.155
-80.938
-80.744
-80.576
-80.439
-80.338
-80.277
-80.259
-80.287
-80.365
-80.494
-80.677
-80.916
-81.213
-81.568
-81.982
-82.456
-82.99
-83.582
-84.232
-84.937
-85.697
-86.508
-87.367
-88.271
-89.215
-90.196
-91.21
-92.25
-93.312
-94.391
-95.482
-96.579
-97.678
-98.773
-99.859
-100.934
-101.992
-103.031
-104.048
-105.04
-106.006
-106.943
-107.85
-108.726
-109.57
-110.381
-111.159
-111.904
-112.616
-113.296
-113.943
-114.559
-115.145
-115.702
-116.231
-116.734
-117.212
-117.667
-118.098
-118.508
-118.896
-119.263
-119.609
-119.934
-120.237
-120.518
-120.774
-121.004
-121.203
-121.37
-121.498
-121.583
-121.62
-121.603
-121.524
-121.38
-121.162
-120.866
-120.484
-120.013
-119.444
-118.774
-117.995
-117.103
-116.093
-114.961
-113.704
-112.321
-110.81
-109.171
-107.409
-105.529
-103.538
-101.442
-99.248
-96.968
-94.612
-92.197
-89.738
-87.25
-84.747
-82.244
-79.759
-77.313
-74.926
-72.615
-70.393
-68.276
-66.279
-64.422
-62.726
-61.199
-59.845
-58.667
-57.668
-56.868
-56.285
-55.931
-55.811
-55.929
-56.28
-56.865
-57.681
-58.698
-59.88
-61.181
-62.544
-63.941
-65.353
-66.768
-68.186
-69.563
-70.826
-71.915
-72.754
-73.3
-73.589
-73.613
-73.35
-72.913
-72.445
-72.245
-72.812
-74.4
-77.033
-80.716
-85.345
-90.799
-97.091
-103.752
-109.788
-114.575
-117.689
-118.97
-118.784
-117.239
-114.069
-109.72
-105.353
-102.063
-101.222
-103.77
-109.577
-118.682
-131.499
-147.756
-166.395
-185.552
-201.009
-207.585
-201.549
-180.049
-143.602
-94.915
-34.634
38.275
129.237
244.12
384.6
547.961
722.001
890.793
1035.774
1136.632
1180.584
1158.932
1073.229
935.121
756.255
553.255
341.048
132.286
-54.115
-203.314
-307.75
-365.985
-389.25
-392.609
-384.229
-368.452
-344.762
-309.864
-266.082
-218.715
-172.662
-133.312
-103.801
-84.694
-75.444
-74.418
-79.367
-88.097
-98.985
-110.521
-120.73
-127.843
-130.967
-129.946
-125.353
-118.16
-109.076
-98.796
-88.466
-79.3
-72.026
-66.919
-63.83
-62.312
-61.987
-62.508
-63.337
-63.899
-63.841
-62.992
-61.354
-59.055
-56.185
-52.801
-49.003
-44.907
-40.596
-36.137
-31.569
-26.921
-22.257
-17.661
-13.217
-8.989
-5.01
-1.296
2.153
5.343
8.294
11.037
13.611
16.049
18.38
20.633
22.839
25.035
27.263
29.565
31.987
34.57
37.352
40.366
43.644
47.21
51.087
55.295
59.852
64.775
70.083
75.792
81.915
88.463
95.443
102.86
110.714
119.001
127.713
136.837
146.359
156.259
166.516
177.103
187.991
199.147
210.536
222.116
233.848
245.684
257.579
269.484
281.348
293.12
304.747
316.176
327.354
338.228
348.746
358.856
368.506
377.648
386.233
394.216
401.553
408.204
414.13
419.297
423.672
427.229
429.943
431.795
432.767
432.85
432.034
430.318
427.702
424.193
419.801
414.541
408.431
401.495
393.759
385.253
376.011
366.07
355.47
344.252
332.462
320.146
307.352
294.133
280.538
266.62
252.432
238.029
223.463
208.787
194.053
179.314
164.62
150.021
135.563
121.293
107.254
93.488
80.034
66.928
54.203
41.89
30.014
18.601
7.669
-2.762
-12.679
-22.071
-30.93
-39.25
-47.029
-54.268
-60.97
-67.141
-72.789
-77.924
-82.56
-86.71
-90.392
-93.621
-96.418
-98.803
-100.796
-102.419
-103.695
-104.648
-105.3
-105.675
-105.796
-105.688
-105.373
-104.873
-104.211
-103.406
-102.48
-101.45
-100.336
-99.155
-97.922
-96.652
-95.36
-94.058
-92.759
-91.472
-90.209
-88.976
-87.782
-86.634
-85.537
-84.497
-83.517
-82.602
-81.753
-80.973
-80.264
-79.627
-79.061
-78.567
-78.144
-77.791
-77.505
-77.286
-77.131
-77.037
-77.003
-77.026
-77.103
-77.232
-77.409
-77.632
-77.898
-78.204
-78.547
-78.923
-79.329
-79.763
-80.221
-80.699
-81.195
-81.705
-82.225
-82.752
-83.282
-83.812
-84.339
-84.858
-85.367
-85.862
-86.341
-86.8
-87.238
-87.653
-88.041
-88.403
-88.736
-89.04
-89.313
-89.556
-89.768
-89.95
-90.101
-90.222
-90.315
-90.381
-90.42
-90.434
-90.426
-90.398
-90.352
-90.29
-90.215
-90.131
-90.041
-89.947
-89.853
-89.763
-89.68
-89.606
-89.546
-89.502
-89.477
-89.473
-89.492
-89.535
-89.605
-89.701
-89.824
-89.973
-90.147
-90.346
-90.567
-90.809
-91.069
-91.345
-91.633
-91.93
-92.232
-92.537
-92.84
-93.137
-93.425
-93.698
-93.953
-94.187
-94.394
-94.572
-94.717
-94.826
-94.894
-94.921
-94.902
-94.836
-94.721
-94.556
-94.34
-94.073
-93.757
-93.391
-92.978
-92.522
-92.025
-91.491
-90.925
-90.333
-89.718
-89.089
-88.45
-87.808
-87.171
-86.544
-85.936
-85.353
-84.802
-84.289
-83.822
-83.405
-83.045
-82.746
-82.513
-82.35
-82.261
-82.248
-82.313
-82.459
-82.686
-82.995
-83.384
-83.854
-84.4
-85.019
-85.708
-86.46
-87.269
-88.127
-89.026
-89.958
-90.913
-91.88
-92.849
-93.807
-94.743
-95.644
-96.497
-97.288
-98.006
-98.636
-99.167
-99.586
-99.883
-100.047
-100.069
-99.938
-99.648
-99.19
-98.56
-97.751
-96.76
-95.585
-94.224
-92.679
-90.952
-89.047
-86.97
-84.731
-82.341
-79.813
-77.16
-74.4
-71.551
-68.632
-65.662
-62.663
-59.652
-56.651
-53.682
-50.766
-47.929
-45.194
-42.583
-40.119
-37.82
-35.707
-33.796
-32.096
-30.614
-29.359
-28.342
-27.583
-27.103
-26.915
-27.03
-27.458
-28.197
-29.243
-30.577
-32.162
-33.958
-35.924
-38.022
-40.228
-42.513
-44.837
-47.148
-49.376
-51.45
-53.31
-54.897
-56.157
-57.071
-57.641
-57.924
-58.022
-58.023
-58.022
-58.123
-58.416
-59.011
-60.022
-61.536
-63.68
-66.69
-70.743
-75.898
-82.098
-89.017
-96.185
-103.146
-109.253
-113.612
-115.515
-114.658
-111.144
-105.722
-99.708
-94.508
-91.668
-93.387
-100.232
-110.042
-120.507
-128.554
-133.475
-140.225
-150.948
-161.368
-161.076
-130.714
-53.761
72.301
240.115
432.223
626.627
810.709
974.447
1105.963
1196.82
1232.287
1199.657
1099.066
934.547
721.435
483.477
241.951
21.573
-157.763
-287.581
-366.217
-401.543
-406.09
-388.463
-356.177
-316.376
-273.726
-234.58
-202.375
-174.699
-150.241
-127.241
-106.38
-92.632
-87.798
-91.868
-103.122
-117.033
-130.795
-142.585
-150.58
-154.514
-154.593
-151.051
-144.809
-136.898
-128.075
-119.415
-112.051
-106.504
-102.929
-101.2
-100.853
-101.441
-102.593
-103.784
-104.471
-104.36
-103.308
-101.318
-98.506
-94.941
-90.671
-85.792
-80.415
-74.634
-68.528
-62.154
-55.564
-48.846
-42.109
-35.464
-28.997
-22.763
-16.794
-11.107
-5.712
-0.611
4.211
8.777
13.107
17.218
21.125
24.84
28.389
31.802
35.11
38.35
41.556
44.761
47.997
51.292
54.675
58.172
61.809
65.61
69.603
73.812
78.263
82.985
88.007
93.362
99.078
105.167
111.636
118.484
125.698
133.263
141.153
149.321
157.724
166.319
175.064
183.944
192.947
202.048
211.222
220.434
229.662
238.913
248.202
257.529
266.902
276.324
285.814
295.44
305.253
315.279
325.524
335.939
346.449
356.996
367.516
377.922
388.105
397.907
407.156
415.732
423.535
430.466
436.401
441.144
444.509
446.371
446.631
445.252
442.225
437.515
431.108
423.058
413.461
402.468
390.247
376.882
362.414
346.909
330.474
313.301
295.597
277.512
259.186
240.75
222.349
204.176
186.4
169.103
152.322
136.066
120.339
105.235
90.898
77.429
64.885
53.262
42.534
32.706
23.771
15.678
8.324
1.549
-4.778
-10.717
-16.293
-21.524
-26.443
-31.139
-35.731
-40.297
-44.89
-49.546
-54.287
-59.156
-64.174
-69.315
-74.503
-79.63
-84.617
-89.427
-94.049
-98.473
-102.68
-106.633
-110.299
-113.67
-116.744
-119.518
-121.986
-124.132
-125.957
-127.487
-128.77
-129.863
-130.806
-131.622
-132.324
-132.926
-133.438
-133.871
-134.226
-134.493
-134.662
-134.733
-134.706
-134.587
-134.376
-134.067
-133.65
-133.118
-132.466
-131.693
-130.799
-129.785
-128.654
-127.41
-126.062
-124.624
-123.103
-121.511
-119.852
-118.136
-116.37
-114.562
-112.72
-110.85
-108.961
-107.061
-105.159
-103.263
-101.384
-99.529
-97.706
-95.925
-94.193
-92.518
-90.905
-89.361
-87.892
-86.501
-85.193
-83.971
-82.838
-81.794
-80.841
-79.979
-79.208
-78.526
-77.932
-77.423
-76.998
-76.652
-76.384
-76.191
-76.068
-76.014
-76.023
-76.094
-76.223
-76.406
-76.638
-76.917
-77.239
-77.6
-77.995
-78.423
-78.879
-79.361
-79.866
-80.392
-80.937
-81.501
-82.08
-82.676
-83.288
-83.914
-84.556
-85.214
-85.887
-86.576
-87.28
-88.001
-88.736
-89.486
-90.25
-91.027
-91.814
-92.612
-93.417
-94.228
-95.043
-95.859
-96.673
-97.483
-98.285
-99.076
-99.854
-100.616
-101.358
-102.077
-102.771
-103.435
-104.068
-104.666
-105.226
-105.745
-106.22
-106.646
-107.022
-107.344
-107.608
-107.814
-107.961
-108.046
-108.07
-108.034
-107.939
-107.787
-107.581
-107.322
-107.015
-106.663
-106.271
-105.843
-105.383
-104.897
-104.39
-103.865
-103.329
-102.784
-102.234
-101.682
-101.129
-100.578
-100.028
-99.482
-98.937
-98.394
-97.852
-97.312
-96.774
-96.24
-95.711
-95.184
-94.662
-94.142
-93.62
-93.09
-92.54
-91.96
-91.34
-90.67
-89.941
-89.143
-88.267
-87.307
-86.26
-85.121
-83.883
-82.539
-81.07
-79.467
-77.734
-75.883
-73.931
-71.91
-69.846
-67.765
-65.707
-63.697
-61.75
-59.873
-58.042
-56.235
-54.447
-52.685
-50.981
-49.364
-47.832
-46.379
-44.988
-43.618
-42.241
-40.82
-39.287
-37.61
-35.79
-33.852
-31.885
-29.995
-28.246
-26.674
-25.277
-24.025
-22.931
-22.007
-21.268
-20.759
-20.516
-20.581
-21.038
-21.935
-23.28
-25.051
-27.155
-29.443
-31.794
-34.143
-36.506
-38.978
-41.669
-44.616
-47.759
-51.147
-54.978
-59.416
-64.641
-70.645
-77.106
-83.994
-91.66
-100.123
-109.054
-117.845
-125.337
-130.852
-134.575
-136.208
-134.959
-130.557
-123.189
-113.885
-104.744
-97.361
-92.278
-90.354
-93.2
-100.556
-109.948
-118.572
-122.265
-121.224
-120.759
-120.259
-114.479
-90.564
-29.629
73.473
213.296
375.291
538.064
692.917
837.168
968.288
1082.601
1164.939
1195.701
1160.236
1053.111
880.961
662.06
420.72
181.927
-29.963
-198.224
-315.064
-381.886
-407.199
-399.207
-367.699
-319.952
-264.735
-216.282
-181.806
-165.019
-162.683
-161.936
-156.988
-146.745
-133.134
-124.101
-122.571
-126.474
-133.556
-139.514
-141.145
-138.265
-131.12
-120.154
-106.362
-90.631
-73.637
-56.536
-40.793
-27.198
-16.221
-8.101
-2.548
0.737
2.001
1.731
0.508
-1.266
-3.303
-5.45
-7.725
-10.079
-12.425
-14.67
-16.678
-18.332
-19.506
-20.091
-20.023
-19.26
-17.812
-15.727
-13.071
-9.926
-6.372
-2.456
1.794
6.333
11.122
16.082
21.099
26.091
30.983
35.714
40.259
44.596
48.711
52.62
56.364
59.984
63.53
67.038
70.527
74.034
77.601
81.281
85.143
89.234
93.589
98.243
103.226
108.567
114.295
120.419
126.923
133.795
141.02
148.574
156.431
164.543
172.841
181.27
189.79
198.373
207.012
215.696
224.405
233.123
241.839
250.54
259.226
267.879
276.464
284.975
293.416
301.826
310.282
318.818
327.427
336.079
344.709
353.237
361.579
369.619
377.217
384.255
390.632
396.28
401.176
405.265
408.473
410.688
411.75
411.537
409.975
407.003
402.594
396.766
389.576
381.135
371.613
361.138
349.81
337.686
324.769
311.085
296.676
281.617
266.041
250.086
233.89
217.612
201.417
185.419
169.684
154.23
139.011
124.02
109.281
94.855
80.845
67.362
54.523
42.419
31.107
20.594
10.847
1.788
-6.702
-14.707
-22.275
-29.427
-36.139
-42.404
-48.23
-53.642
-58.684
-63.425
-67.959
-72.372
-76.738
-81.089
-85.414
-89.67
-93.775
-97.666
-101.296
-104.637
-107.685
-110.441
-112.911
-115.107
-117.042
-118.713
-120.098
-121.175
-121.923
-122.342
-122.451
-122.284
-121.891
-121.322
-120.618
-119.818
-118.95
-118.032
-117.077
-116.09
-115.068
-114.014
-112.937
-111.849
-110.762
-109.684
-108.62
-107.571
-106.538
-105.517
-104.505
-103.5
-102.5
-101.505
-100.517
-99.541
-98.584
-97.65
-96.744
-95.87
-95.03
-94.225
-93.457
-92.725
-92.029
-91.367
-90.74
-90.146
-89.586
-89.06
-88.566
-88.104
-87.674
-87.275
-86.907
-86.568
-86.257
-85.973
-85.716
-85.483
-85.274
-85.087
-84.921
-84.776
-84.65
-84.543
-84.454
-84.382
-84.325
-84.283
-84.253
-84.236
-84.229
-84.231
-84.242
-84.261
-84.287
-84.319
-84.357
-84.401
-84.449
-84.501
-84.556
-84.614
-84.673
-84.733
-84.794
-84.855
-84.916
-84.976
-85.037
-85.096
-85.155
-85.213
-85.27
-85.326
-85.38
-85.432
-85.483
-85.531
-85.577
-85.62
-85.661
-85.698
-85.734
-85.767
-85.798
-85.828
-85.857
-85.887
-85.917
-85.949
-85.985
-86.025
-86.072
-86.126
-86.19
-86.265
-86.353
-86.455
-86.573
-86.709
-86.864
-87.038
-87.234
-87.452
-87.693
-87.959
-88.249
-88.566
-88.909
-89.279
-89.675
-90.1
-90.551
-91.029
-91.532
-92.061
-92.613
-93.186
-93.78
-94.392
-95.019
-95.659
-96.307
-96.96
-97.614
-98.264
-98.903
-99.528
-100.131
-100.709
-101.255
-101.764
-102.231
-102.649
-103.014
-103.319
-103.559
-103.728
-103.82
-103.829
-103.749
-103.575
-103.302
-102.925
-102.44
-101.843
-101.13
-100.3
-99.348
-98.271
-97.069
-95.738
-94.28
-92.696
-90.988
-89.159
-87.216
-85.168
-83.027
-80.802
-78.504
-76.146
-73.738
-71.295
-68.832
-66.362
-63.902
-61.467
-59.074
-56.743
-54.492
-52.341
-50.305
-48.397
-46.628
-45.011
-43.558
-42.281
-41.187
-40.282
-39.573
-39.073
-38.793
-38.736
-38.906
-39.301
-39.911
-40.726
-41.727
-42.884
-44.167
-45.544
-46.979
-48.438
-49.887
-51.298
-52.649
-53.925
-55.118
-56.201
-57.138
-57.883
-58.407
-58.75
-58.971
-59.114
-59.282
-59.644
-60.447
-62.138
-65.147
-69.589
-75.477
-82.787
-91.228
-100.51
-110.151
-118.995
-125.838
-130.068
-131.34
-129.673
-125.6
-119.432
-111.732
-104.29
-99.17
-97.76
-101.206
-109.935
-123.632
-142.62
-165.366
-187.056
-202.993
-208.89
-205.409
-199.035
-191.31
-178.406
-147.211
-77.639
37.112
192.203
370.815
547.287
708.611
850.061
970.665
1070.529
1139.307
1161.831
1124.931
1022.655
859.101
647.365
408.451
166.924
-50.639
-221.864
-334.651
-390.017
-399.079
-375.085
-332.179
-278.962
-223.32
-177.846
-148.392
-138.426
-145.133
-155.451
-162.859
-164.758
-161.276
-159.084
-159.992
-162.037
-163.96
-162.515
-156.059
-145.697
-132.435
-117.723
-103.495
-90.769
-79.936
-71.372
-65.206
-61.28
-59.465
-59.377
-60.276
-61.656
-63.198
-64.603
-65.718
-66.379
-66.403
-65.734
-64.407
-62.447
-59.89
-56.765
-53.081
-48.902
-44.312
-39.395
-34.249
-28.956
-23.602
-18.284
-13.094
-8.117
-3.416
0.979
5.05
8.795
12.228
15.369
18.249
20.912
23.399
25.748
28.001
30.195
32.372
34.575
36.846
39.226
41.755
44.469
47.4
50.578
54.033
57.787
61.863
66.28
71.057
76.211
81.76
87.718
94.095
100.901
108.14
115.815
123.922
132.454
141.401
150.746
160.471
170.553
180.965
191.679
202.66
213.873
225.278
236.834
248.494
260.211
271.937
283.619
295.205
306.641
317.871
328.84
339.492
349.773
359.627
369.001
377.843
386.102
393.73
400.681
406.912
412.382
417.055
420.897
423.88
425.979
427.173
427.445
426.785
425.186
422.644
419.162
414.747
409.41
403.167
396.038
388.048
379.224
369.601
359.215
348.106
336.317
323.896
310.893
297.36
283.351
268.923
254.133
239.041
223.706
208.187
192.545
176.839
161.128
145.468
129.916
114.526
99.35
84.437
69.835
55.588
41.737
28.32
15.373
2.925
-8.994
-20.361
-31.156
-41.363
-50.967
-59.962
-68.341
-76.103
-83.251
-89.791
-95.731
-101.085
-105.868
-110.099
-113.799
-116.991
-119.7
-121.954
-123.781
-125.21
-126.271
-126.996
-127.415
-127.56
-127.462
-127.151
-126.658
-126.011
-125.24
-124.37
-123.429
-122.439
-121.425
-120.407
-119.405
-118.437
-117.52
-116.666
-115.889
-115.199
-114.604
-114.111
-113.723
-113.445
