Name,Aleksandre Beruashvili
Date of Birth,"Dec 20, 1998"
Recorded Date,2024-05-16 23:05:27 +0400
Classification,Sinus Rhythm
Symptoms,
Software Version,1.90
Device,"Watch7,2"
Sample Rate,512 hertz


Lead,Lead I
Unit,µV

-100.41
-94.295
-88.184
-82.127
-76.156
-70.326
-64.694
-59.327
-54.329
-49.781
-45.708
-42.106
-38.92
-36.058
-33.466
-31.1
-28.918
-26.896
-25
-23.196
-21.472
-19.806
-18.164
-16.499
-14.73
-12.79
-10.656
-8.329
-5.846
-3.274
-0.656
1.976
4.58
7.132
9.611
11.996
14.293
16.505
18.624
20.632
22.493
24.174
25.66
26.952
28.061
29.011
29.819
30.495
31.057
31.514
31.871
32.126
32.268
32.281
32.157
31.894
31.497
30.973
30.324
29.551
28.655
27.633
26.485
25.206
23.791
22.241
20.557
18.748
16.826
14.804
12.695
10.508
8.248
5.919
3.524
1.066
-1.451
-4.013
-6.599
-9.176
-11.704
-14.149
-16.478
-18.66
-20.668
-22.475
-24.062
-25.424
-26.542
-27.396
-27.966
-28.235
-28.199
-27.89
-27.357
-26.658
-25.877
-25.076
-24.307
-23.634
-23.121
-22.842
-22.861
-23.216
-23.918
-25.006
-26.573
-28.62
-31.023
-33.465
-35.449
-36.477
-36.181
-34.362
-30.826
-25.619
-19.188
-12.301
-6.25
-2.49
-1.961
-4.85
-10.94
-19.339
-28.234
-35.501
-38.153
-32.575
-16.206
12.1
52.48
103.48
162.047
224.518
285.614
338.561
377.648
399.661
403.767
390.776
361.533
313.188
242.483
152.004
51.127
-41.907
-107.77
-137.01
-132.742
-109.852
-84.622
-66.873
-58.138
-52.94
-47.393
-41.056
-35.481
-34.009
-37.348
-43.811
-51.717
-59.028
-64.512
-68.03
-69.454
-68.9
-66.917
-64.067
-60.946
-58.16
-55.992
-54.501
-53.71
-53.542
-53.894
-54.672
-55.737
-56.95
-58.225
-59.515
-60.784
-61.986
-63.065
-63.961
-64.628
-65.047
-65.221
-65.155
-64.858
-64.348
-63.644
-62.771
-61.76
-60.633
-59.412
-58.125
-56.805
-55.495
-54.234
-53.048
-51.958
-50.976
-50.108
-49.356
-48.715
-48.17
-47.711
-47.324
-46.999
-46.727
-46.497
-46.295
-46.105
-45.909
-45.691
-45.437
-45.131
-44.761
-44.313
-43.775
-43.138
-42.396
-41.541
-40.563
-39.455
-38.208
-36.816
-35.272
-33.572
-31.711
-29.685
-27.493
-25.135
-22.613
-19.93
-17.089
-14.098
-10.961
-7.688
-4.289
-0.774
2.845
6.555
10.342
14.19
18.083
22.005
25.937
29.861
33.761
37.616
41.409
45.121
48.735
52.232
55.597
58.812
61.861
64.729
67.402
69.866
72.109
74.119
75.887
77.404
78.662
79.656
80.382
80.837
81.019
80.927
80.564
79.932
79.034
77.875
76.463
74.805
72.91
70.789
68.453
65.916
63.19
60.289
57.229
54.024
50.691
47.245
43.703
40.081
36.395
32.663
28.9
25.123
21.348
17.589
13.861
10.179
6.554
3
-0.472
-3.852
-7.129
-10.294
-13.339
-16.257
-19.041
-21.685
-24.184
-26.536
-28.738
-30.787
-32.683
-34.427
-36.02
-37.463
-38.758
-39.91
-40.92
-41.794
-42.537
-43.154
-43.65
-44.033
-44.307
-44.481
-44.561
-44.552
-44.462
-44.297
-44.062
-43.763
-43.405
-42.994
-42.533
-42.029
-41.485
-40.907
-40.296
-39.659
-38.997
-38.314
-37.612
-36.894
-36.163
-35.42
-34.667
-33.905
-33.138
-32.365
-31.59
-30.812
-30.033
-29.253
-28.474
-27.696
-26.919
-26.143
-25.369
-24.598
-23.831
-23.069
-22.314
-21.568
-20.833
-20.112
-19.407
-18.72
-18.055
-17.415
-16.801
-16.219
-15.67
-15.159
-14.688
-14.261
-13.881
-13.55
-13.27
-13.044
-12.873
-12.758
-12.7
-12.698
-12.754
-12.867
-13.037
-13.265
-13.55
-13.889
-14.283
-14.73
-15.227
-15.772
-16.36
-16.986
-17.647
-18.342
-19.065
-19.815
-20.585
-21.363
-22.145
-22.931
-23.7
-24.435
-25.127
-25.748
-26.294
-26.797
-27.243
-27.614
-27.965
-28.312
-28.651
-29.04
-29.462
-29.795
-30.036
-30.221
-30.119
-29.553
-28.728
-27.589
-26.015
-24.676
-22.567
-18.333
-13.725
-9.317
-7.776
-14.32
-26.102
-38.37
-46.353
-40.729
-22.308
-0.152
19.612
27.384
20.176
7.233
-5.819
-13.513
-11.62
-5.686
0.606
6.156
8.638
9.777
11.162
12.266
13.37
14.355
14.825
15.019
15.133
15.105
14.947
14.716
14.39
13.94
13.366
12.633
11.704
10.601
9.339
7.91
6.323
4.583
2.693
0.667
-1.484
-3.753
-6.131
-8.606
-11.166
-13.802
-16.509
-19.279
-22.101
-24.96
-27.84
-30.718
-33.572
-36.374
-39.081
-41.649
-44.034
-46.193
-48.101
-49.744
-51.1
-52.15
-52.876
-53.262
-53.32
-53.076
-52.541
-51.737
-50.689
-49.442
-48.095
-46.765
-45.556
-44.566
-43.86
-43.47
-43.443
-43.811
-44.564
-45.684
-47.094
-48.687
-50.432
-52.308
-54.255
-56.167
-57.787
-58.778
-58.893
-57.873
-55.401
-51.266
-45.285
-37.474
-28.284
-18.193
-7.566
3.186
13.757
24.022
34.121
44.947
58.062
74.783
94.77
116.283
138.061
159.853
185.348
219.907
262.923
308.411
342.476
347.043
314.893
248.778
161.823
75.898
4.213
-47.485
-78.915
-98.708
-111.222
-117.895
-121.288
-118.867
-110.526
-98.777
-84.405
-70.709
-60.229
-53.098
-49.384
-48.062
-47.581
-46.938
-45.49
-42.716
-38.458
-32.892
-26.292
-19.109
-11.919
-5.265
0.531
5.299
8.992
11.716
13.573
14.673
15.179
15.277
15.112
14.81
14.494
14.236
14.101
14.151
14.417
14.918
15.668
16.658
17.859
19.243
20.775
22.425
24.168
25.967
27.78
29.561
31.26
32.839
34.277
35.555
36.664
37.598
38.356
38.95
39.4
39.725
39.941
40.062
40.101
40.076
40.007
39.915
39.821
39.741
39.691
39.684
39.733
39.85
40.045
40.326
40.703
41.187
41.791
42.529
43.416
44.464
45.681
47.079
48.663
50.435
52.398
54.555
56.912
59.477
62.255
65.24
68.428
71.809
75.364
79.068
82.883
86.768
90.693
94.633
98.574
102.517
106.456
110.391
114.321
118.234
122.118
125.969
129.774
133.525
137.233
140.917
144.621
148.402
152.286
156.278
160.366
164.503
168.638
172.706
176.621
180.315
183.734
186.821
189.542
191.866
193.732
195.076
195.813
195.832
195.069
193.485
191.061
187.827
183.832
179.149
173.895
168.17
162.053
155.621
148.925
142.01
134.946
127.806
120.672
113.654
106.833
100.272
94.033
88.133
82.575
77.339
72.368
67.615
63.053
58.664
54.448
50.413
46.554
42.871
39.363
36.015
32.812
29.749
26.81
23.999
21.327
18.814
16.495
14.402
12.552
10.956
9.617
8.528
7.683
7.071
6.674
6.477
6.47
6.639
6.978
7.474
8.111
8.873
9.74
10.691
11.707
12.772
13.869
14.985
16.106
17.221
18.324
19.407
20.459
21.473
22.439
23.349
24.193
24.964
25.656
26.261
26.776
27.196
27.521
27.748
27.879
27.914
27.853
27.701
27.459
27.13
26.718
26.228
25.663
25.027
24.326
23.565
22.748
21.881
20.969
20.018
19.032
18.016
16.975
15.913
14.835
13.745
12.648
11.547
10.446
9.35
8.263
7.189
6.131
5.091
4.074
3.081
2.114
1.175
0.266
-0.612
-1.458
-2.27
-3.047
-3.788
-4.492
-5.158
-5.784
-6.368
-6.91
-7.408
-7.859
-8.264
-8.619
-8.924
-9.175
-9.372
-9.513
-9.595
-9.616
-9.575
-9.469
-9.297
-9.055
-8.744
-8.361
-7.905
-7.375
-6.771
-6.093
-5.34
-4.514
-3.614
-2.643
-1.601
-0.492
0.684
1.922
3.22
4.572
5.973
7.418
8.9
10.411
11.946
13.496
15.053
16.61
18.157
19.686
21.188
22.653
24.07
25.428
26.717
27.924
29.039
30.049
30.944
31.715
32.353
32.851
33.201
33.399
33.44
33.319
33.034
32.579
31.95
31.145
30.162
29.001
27.661
26.144
24.45
22.586
20.558
18.374
16.038
13.548
10.908
8.128
5.219
2.197
-0.917
-4.105
-7.338
-10.568
-13.75
-16.838
-19.787
-22.577
-25.184
-27.581
-29.746
-31.648
-33.269
-34.62
-35.711
-36.544
-37.131
-37.49
-37.669
-37.776
-37.911
-38.165
-38.623
-39.325
-40.31
-41.616
-43.252
-45.217
-47.467
-49.913
-52.505
-55.224
-58.025
-60.852
-63.523
-65.713
-67.169
-67.623
-66.716
-64.218
-59.915
-53.71
-45.946
-37.084
-27.492
-17.662
-8.054
1.174
10.146
19.527
30.761
45.496
63.783
84.463
107.119
130.575
157.199
192.894
236.872
286.285
332.51
356.764
349.744
306.848
227.205
126.528
19.217
-80.195
-151.262
-185.945
-184.636
-153.27
-109.95
-71.797
-46.146
-36.164
-37.97
-41.966
-44.81
-45.213
-41.669
-38.254
-36.454
-35.357
-35.953
-36.502
-35.475
-33.351
-30.112
-26.28
-22.8
-20.055
-18.132
-17.134
-17.034
-17.664
-18.946
-20.803
-23.034
-25.456
-27.942
-30.352
-32.612
-34.708
-36.591
-38.219
-39.571
-40.624
-41.38
-41.868
-42.11
-42.13
-41.952
-41.595
-41.093
-40.486
-39.815
-39.125
-38.446
-37.796
-37.192
-36.646
-36.167
-35.761
-35.424
-35.146
-34.918
-34.731
-34.579
-34.461
-34.369
-34.291
-34.216
-34.133
-34.031
-33.903
-33.742
-33.538
-33.285
-32.975
-32.603
-32.165
-31.656
-31.068
-30.394
-29.623
-28.749
-27.764
-26.663
-25.437
-24.081
-22.591
-20.963
-19.194
-17.282
-15.224
-13.019
-10.666
-8.164
-5.514
-2.719
0.219
3.296
6.506
9.845
13.304
16.876
20.551
24.32
28.172
32.095
36.078
40.106
44.165
48.24
52.316
56.376
60.404
64.384
68.297
72.129
75.861
79.479
82.966
86.305
89.483
92.483
95.292
97.895
100.278
102.43
104.337
105.991
107.381
108.498
109.336
109.888
110.15
110.118
109.791
109.168
108.249
107.037
105.537
103.753
101.692
99.363
96.776
93.941
90.872
87.58
84.08
80.388
76.518
72.488
68.316
64.02
59.618
55.131
50.577
45.978
41.355
36.726
32.114
27.537
23.016
18.57
14.217
9.976
5.862
1.893
-1.916
-5.552
-9.003
-12.257
-15.304
-18.138
-20.75
-23.137
-25.294
-27.22
-28.914
-30.376
-31.609
-32.615
-33.4
-33.97
-34.331
-34.493
-34.466
-34.26
-33.888
-33.364
-32.7
-31.912
-31.014
-30.023
-28.954
-27.823
-26.647
-25.441
-24.221
-23.003
-21.801
-20.629
-19.501
-18.43
-17.425
-16.498
-15.656
-14.91
-14.264
-13.724
-13.296
-12.982
-12.786
-12.707
-12.747
-12.903
-13.175
-13.557
-14.045
-14.633
-15.314
-16.081
-16.924
-17.834
-18.802
-19.817
-20.867
-21.943
-23.032
-24.123
-25.204
-26.266
-27.298
-28.289
-29.231
-30.116
-30.936
-31.684
-32.356
-32.948
-33.455
-33.875
-34.207
-34.45
-34.604
-34.67
-34.651
-34.548
-34.367
-34.112
-33.789
-33.404
-32.965
-32.48
-31.956
-31.404
-30.831
-30.248
-29.665
-29.09
-28.534
-28.006
-27.514
-27.068
-26.676
-26.343
-26.076
-25.88
-25.759
-25.716
-25.751
-25.866
-26.059
-26.331
-26.676
-27.092
-27.574
-28.117
-28.714
-29.358
-30.041
-30.755
-31.491
-32.24
-32.992
-33.737
-34.464
-35.163
-35.823
-36.434
-36.985
-37.465
-37.865
-38.176
-38.389
-38.497
-38.493
-38.372
-38.13
-37.764
-37.272
-36.654
-35.911
-35.045
-34.06
-32.962
-31.757
-30.455
-29.065
-27.599
-26.068
-24.485
-22.864
-21.218
-19.561
-17.908
-16.272
-14.67
-13.118
-11.631
-10.224
-8.914
-7.717
-6.65
-5.728
-4.965
-4.373
-3.964
-3.75
-3.737
-3.934
-4.342
-4.966
-5.807
-6.868
-8.15
-9.654
-11.375
-13.308
-15.45
-17.793
-20.328
-23.039
-25.908
-28.915
-32.049
-35.301
-38.667
-42.136
-45.692
-49.32
-53.002
-56.714
-60.421
-64.073
-67.603
-70.956
-74.094
-76.99
-79.63
-82
-84.075
-85.83
-87.245
-88.303
-88.993
-89.294
-89.189
-88.69
-87.85
-86.772
-85.594
-84.428
-83.355
-82.426
-81.666
-81.096
-80.725
-80.55
-80.558
-80.728
-81.033
-81.455
-81.953
-82.414
-82.687
-82.496
-81.462
-79.35
-76.062
-71.651
-66.385
-60.529
-54.217
-47.711
-41.385
-35.182
-28.669
-20.979
-10.693
3.32
21.581
44.536
72.43
104.473
139.083
173.797
205.023
229.573
245.046
248.977
239.501
216.451
180.81
134.884
82.566
27.579
-26.485
-75.146
-114.459
-142.295
-157.612
-160.677
-153.039
-136.146
-112.193
-85.042
-58.517
-35.092
-16.401
-3.155
4.417
5.75
1.209
-7.184
-17.027
-26.67
-35.165
-42.162
-47.364
-50.021
-49.88
-47.725
-44.779
-41.955
-39.678
-37.96
-36.752
-36.31
-36.812
-38.038
-39.533
-40.893
-41.914
-42.609
-43.087
-43.342
-43.319
-43.023
-42.514
-41.882
-41.198
-40.478
-39.7
-38.862
-37.988
-37.118
-36.289
-35.524
-34.828
-34.203
-33.649
-33.166
-32.755
-32.413
-32.138
-31.927
-31.775
-31.678
-31.633
-31.635
-31.676
-31.738
-31.803
-31.854
-31.876
-31.857
-31.787
-31.653
-31.443
-31.146
-30.752
-30.248
-29.622
-28.862
-27.956
-26.89
-25.656
-24.244
-22.647
-20.858
-18.872
-16.686
-14.296
-11.7
-8.897
-5.889
-2.676
0.738
4.348
8.147
12.127
16.278
20.589
25.046
29.635
34.338
39.14
44.021
48.962
53.942
58.939
63.932
68.898
73.814
78.659
83.409
88.042
92.538
96.874
101.031
104.988
108.726
112.228
115.477
118.456
121.152
123.551
125.642
127.414
128.859
129.969
130.74
131.167
131.248
130.983
130.373
129.422
128.136
126.521
124.586
122.342
119.802
116.979
113.888
110.545
106.968
103.175
99.183
95.013
90.684
86.216
81.628
76.943
72.18
67.36
62.503
57.629
52.759
47.911
43.105
38.358
33.687
29.11
24.642
20.299
16.095
12.043
8.154
4.44
0.909
-2.431
-5.573
-8.513
-11.249
-13.777
-16.097
-18.21
-20.118
-21.823
-23.329
-24.641
-25.763
-26.702
-27.466
-28.062
-28.499
-28.784
-28.929
-28.941
-28.832
-28.612
-28.29
-27.877
-27.383
-26.821
-26.2
-25.531
-24.825
-24.092
-23.342
-22.584
-21.827
-21.079
-20.348
-19.638
-18.956
-18.308
-17.695
-17.123
-16.593
-16.108
-15.668
-15.275
-14.929
-14.628
-14.373
-14.161
-13.99
-13.859
-13.764
-13.702
-13.672
-13.668
-13.689
-13.729
-13.785
-13.854
-13.93
-14.009
-14.088
-14.161
-14.226
-14.279
-14.317
-14.337
-14.337
-14.315
-14.272
-14.206
-14.117
-14.007
-13.875
-13.724
-13.556
-13.371
-13.174
-12.965
-12.75
-12.53
-12.309
-12.09
-11.877
-11.673
-11.481
-11.305
-11.148
-11.014
-10.904
-10.822
-10.771
-10.754
-10.772
-10.828
-10.923
-11.059
-11.235
-11.451
-11.707
-12
-12.33
-12.691
-13.082
-13.497
-13.933
-14.384
-14.846
-15.312
-15.777
-16.235
-16.679
-17.102
-17.498
-17.86
-18.181
-18.455
-18.676
-18.837
-18.932
-18.956
-18.904
-18.771
-18.552
-18.243
-17.841
-17.341
-16.741
-16.039
-15.233
-14.324
-13.311
-12.196
-10.981
-9.672
-8.27
-6.782
-5.212
-3.566
-1.85
-0.071
1.764
3.647
5.57
7.522
9.493
11.473
13.451
15.416
17.359
19.268
21.134
22.947
24.698
26.377
27.975
29.481
30.885
32.176
33.345
34.383
35.282
36.034
36.632
37.071
37.35
37.467
37.422
37.211
36.832
36.287
35.578
34.708
33.681
32.498
31.165
29.689
28.081
26.351
24.507
22.559
20.51
18.373
16.154
13.861
11.498
9.063
6.557
3.988
1.362
-1.304
-3.993
-6.679
-9.331
-11.922
-14.436
-16.862
-19.193
-21.424
-23.515
-25.465
-27.278
-28.869
-30.17
-31.116
-31.605
-31.65
-31.355
-30.75
-29.889
-29.071
-28.524
-28.166
-28.109
-28.342
-28.363
-29.19
-31.562
-33.646
-35.073
-32.894
-23.622
-11.646
0.154
7.182
2.75
-8.621
-22.612
-36.043
-43.336
-47.157
-50.504
-52.963
-54.422
-52.261
-44.241
-30.04
-10.068
14.889
44.565
76.6
107.103
134.539
156.67
173.978
188.821
196.371
192.874
174.549
138.077
91.296
41.583
-4.749
-40.688
-67.516
-86.186
-96.219
-100.124
-98.27
-91.353
-82.225
-72.346
-63.033
-56.224
-52.657
-52.198
-54.41
-58.168
-62.097
-65.576
-68.33
-69.89
-70.124
-69.102
-66.932
-64.141
-61.386
-58.959
-56.991
-55.56
-54.594
-54.086
-54.064
-54.401
-54.927
-55.504
-56.001
-56.38
-56.664
-56.841
-56.895
-56.799
-56.512
-56.033
-55.382
-54.568
-53.599
-52.475
-51.192
-49.773
-48.261
-46.704
-45.154
-43.641
-42.177
-40.78
-39.463
-38.237
-37.117
-36.097
-35.167
-34.319
-33.553
-32.867
-32.264
-31.736
-31.272
-30.858
-30.48
-30.126
-29.783
-29.44
-29.08
-28.693
-28.267
-27.794
-27.265
-26.672
-26.004
-25.248
-24.394
-23.428
-22.341
-21.122
-19.759
-18.244
-16.569
-14.729
-12.719
-10.535
-8.175
-5.638
-2.923
-0.031
3.036
6.275
9.683
13.253
16.979
20.851
24.861
28.998
33.249
37.601
42.039
46.548
51.113
55.715
60.338
64.964
69.572
74.144
78.659
83.098
87.44
91.665
95.753
99.685
103.442
107.006
110.36
113.487
116.372
119.001
121.36
123.436
125.219
126.699
127.866
128.715
129.239
129.434
129.299
128.831
128.034
126.907
125.458
123.69
121.611
119.232
116.562
113.615
110.402
106.94
103.245
99.333
95.222
90.932
86.482
81.892
77.182
72.373
67.487
62.545
57.568
52.578
47.596
42.642
37.737
32.901
28.153
23.511
18.994
14.617
10.396
6.346
2.479
-1.192
-4.659
-7.912
-10.945
-13.753
-16.33
-18.676
-20.789
-22.67
-24.319
-25.742
-26.941
-27.922
-28.691
-29.257
-29.627
-29.812
-29.821
-29.666
-29.359
-28.912
-28.337
-27.649
-26.861
-25.987
-25.041
-24.037
-22.989
-21.912
-20.818
-19.72
-18.631
-17.563
-16.525
-15.528
-14.582
-13.693
-12.868
-12.115
-11.438
-10.841
-10.329
-9.903
-9.565
-9.317
-9.158
-9.089
-9.106
-9.208
-9.392
-9.654
-9.989
-10.393
-10.86
-11.384
-11.958
-12.576
-13.23
-13.911
-14.614
-15.328
-16.048
-16.764
-17.47
-18.159
-18.825
-19.462
-20.064
-20.628
-21.148
-21.622
-22.046
-22.419
-22.737
-23.001
-23.209
-23.361
-23.457
-23.499
-23.487
-23.424
-23.312
-23.153
-22.951
-22.71
-22.433
-22.124
-21.789
-21.431
-21.056
-20.67
-20.276
-19.882
-19.491
-19.107
-18.736
-18.382
-18.046
-17.733
-17.444
-17.181
-16.944
-16.735
-16.553
-16.397
-16.266
-16.159
-16.072
-16.004
-15.95
-15.909
-15.875
-15.845
-15.815
-15.779
-15.734
-15.675
-15.596
-15.491
-15.356
-15.185
-14.973
-14.715
-14.405
-14.041
-13.617
-13.131
-12.581
-11.963
-11.278
-10.523
-9.701
-8.811
-7.855
-6.836
-5.757
-4.623
-3.439
-2.211
-0.945
0.351
1.671
3.006
4.349
5.69
7.022
8.336
9.622
10.872
12.073
13.214
14.284
15.273
16.17
16.966
17.651
18.218
18.66
18.973
19.154
19.197
19.1
18.859
18.473
17.942
17.262
16.435
15.46
14.338
13.076
11.677
10.145
8.486
6.702
4.792
2.763
0.621
-1.624
-3.96
-6.37
-8.832
-11.315
-13.781
-16.193
-18.511
-20.697
-22.717
-24.532
-26.112
-27.435
-28.475
-29.217
-29.659
-29.803
-29.672
-29.304
-28.738
-28.036
-27.281
-26.56
-25.976
-25.635
-25.626
-26.035
-26.922
-28.318
-30.243
-32.7
-35.649
-39.028
-42.771
-46.788
-50.997
-55.287
-59.445
-63.179
-66.211
-68.241
-68.854
-67.709
-64.534
-59.186
-51.965
-43.346
-33.633
-23.193
-12.64
-2.403
7.495
17.564
29.424
45.156
64.512
85.504
107.574
129.879
156.265
195.409
247.741
309.157
367.591
399.258
390.19
335.147
238.73
123.76
12.28
-76.713
-129.837
-149.711
-145.297
-130.08
-116.957
-109.893
-108.088
-106.732
-101.638
-93.422
-84.59
-78.328
-76.061
-76.715
-78.391
-79.274
-78.591
-76.168
-71.983
-66.238
-59.236
-51.475
-43.684
-36.544
-30.407
-25.454
-21.746
-19.255
-18.008
-17.948
-18.909
-20.666
-22.969
-25.631
-28.519
-31.505
-34.463
-37.274
-39.836
-42.087
-44.014
-45.594
-46.809
-47.626
-47.988
-47.881
-47.332
-46.392
-45.163
-43.729
-42.156
-40.525
-38.902
-37.336
-35.871
-34.523
-33.276
-32.13
-31.084
-30.141
-29.329
-28.656
-28.112
-27.682
-27.332
-27.03
-26.753
-26.473
-26.16
-25.793
-25.352
-24.831
-24.234
-23.561
-22.808
-21.967
-21.026
-19.972
-18.799
-17.5
-16.067
-14.498
-12.784
-10.922
-8.913
-6.755
-4.446
-1.985
0.634
3.413
6.352
9.448
12.7
16.101
19.648
23.333
27.145
31.075
35.109
39.238
43.447
47.723
52.052
56.418
60.805
65.198
69.58
73.933
78.239
82.48
86.637
90.692
94.625
98.418
102.052
105.508
108.77
111.821
114.646
117.229
119.558
121.619
123.403
124.899
126.099
126.996
127.584
127.86
127.822
127.47
126.806
125.831
124.551
122.971
121.098
118.941
116.509
113.813
110.864
107.677
104.265
100.644
96.831
92.843
88.7
84.42
80.023
75.53
70.961
66.336
61.676
57
52.33
47.685
43.084
38.546
34.089
29.73
25.484
21.369
17.396
13.58
9.932
6.462
3.181
0.097
-2.783
-5.452
-7.907
-10.141
-12.154
-13.944
-15.512
-16.857
-17.985
-18.897
-19.602
-20.103
-20.41
-20.531
-20.475
-20.252
-19.873
-19.35
-18.694
-17.918
-17.034
-16.056
-14.997
-13.87
-12.687
-11.462
-10.207
-8.934
-7.655
-6.381
-5.125
-3.897
-2.707
-1.566
-0.482
0.534
1.476
2.335
3.106
3.783
4.363
4.84
5.215
5.484
5.648
5.707
5.662
5.516
5.272
4.933
4.504
3.991
3.399
2.734
2.004
1.215
0.375
-0.509
-1.43
-2.379
-3.349
-4.332
-5.32
-6.305
-7.279
-8.234
-9.163
-10.058
-10.914
-11.722
-12.479
-13.178
-13.815
-14.387
-14.891
-15.324
-15.685
-15.974
-16.19
-16.334
-16.408
-16.415
-16.357
-16.237
-16.061
-15.833
-15.558
-15.242
-14.891
-14.511
-14.109
-13.691
-13.265
-12.838
-12.416
-12.007
-11.619
-11.258
-10.932
-10.647
-10.411
-10.228
-10.104
-10.045
-10.055
-10.137
-10.294
-10.529
-10.844
-11.239
-11.714
-12.27
-12.906
-13.62
-14.408
-15.268
-16.196
-17.187
-18.236
-19.338
-20.485
-21.672
-22.891
-24.135
-25.397
-26.667
-27.939
-29.203
-30.451
-31.673
-32.86
-34.004
-35.097
-36.13
-37.096
-37.987
-38.799
-39.525
-40.16
-40.7
-41.14
-41.478
-41.711
-41.837
-41.854
-41.762
-41.562
-41.255
-40.844
-40.332
-39.724
-39.024
-38.239
-37.375
-36.44
-35.44
-34.386
-33.285
-32.148
-30.987
-29.814
-28.642
-27.485
-26.356
-25.268
-24.236
-23.272
-22.386
-21.588
-20.886
-20.289
-19.804
-19.439
-19.199
-19.093
-19.129
-19.313
-19.655
-20.159
-20.827
-21.662
-22.662
-23.826
-25.152
-26.638
-28.284
-30.092
-32.056
-34.173
-36.435
-38.827
-41.325
-43.898
-46.503
-49.097
-51.641
-54.095
-56.422
-58.596
-60.592
-62.392
-63.973
-65.312
-66.4
-67.235
-67.821
-68.178
-68.335
-68.341
-68.292
-68.277
-68.37
-68.657
-69.167
-69.927
-70.994
-72.379
-74.091
-76.156
-78.491
-81.028
-83.862
-86.946
-90.047
-92.908
-95.04
-96.078
-96.095
-94.992
-92.27
-87.646
-81.482
-74.652
-68.227
-62.892
-57.171
-48.532
-37.568
-25.708
-15.587
-12.202
-12.306
-8.126
6.854
42.548
98.307
162.469
224.562
272.036
298.716
309.682
309.865
300.162
279.24
241.756
181.844
105.138
24.089
-49.158
-99.686
-123.894
-130.197
-125.733
-119.73
-116.083
-109.956
-99.44
-84.66
-67.484
-52.63
-42.473
-36.961
-35.305
-36.269
-38.794
-41.811
-44.383
-45.851
-45.903
-44.779
-42.905
-40.565
-38.134
-36.073
-34.65
-34.034
-34.256
-35.125
-36.462
-38.123
-39.922
-41.703
-43.349
-44.778
-45.955
-46.876
-47.529
-47.905
-47.998
-47.808
-47.35
-46.64
-45.695
-44.547
-43.222
-41.758
-40.199
-38.581
-36.945
-35.321
-33.727
-32.178
-30.688
-29.26
-27.901
-26.612
-25.388
-24.225
-23.12
-22.066
-21.06
-20.095
-19.161
-18.249
-17.346
-16.442
-15.529
-14.598
-13.642
-12.652
-11.623
-10.547
-9.419
-8.235
-6.985
-5.663
-4.26
-2.768
-1.179
0.513
2.315
4.234
6.274
8.44
10.735
13.161
15.719
18.412
21.239
24.2
27.293
30.514
33.859
37.324
40.901
44.582
48.359
52.22
56.153
60.146
64.187
68.259
72.349
76.44
80.517
84.561
88.557
92.485
96.328
100.068
103.688
107.168
110.491
113.641
116.601
119.356
121.891
124.192
126.246
128.041
129.567
130.813
131.772
132.437
132.801
132.862
132.616
132.064
131.207
130.047
128.589
126.839
124.805
122.496
119.922
117.096
114.029
110.738
107.237
103.542
99.672
95.645
91.48
87.196
82.814
78.353
73.833
69.275
64.698
60.121
55.565
51.048
46.589
42.205
37.914
33.732
29.674
25.754
21.986
18.381
14.949
11.698
8.637
5.772
3.107
0.645
-1.61
-3.66
-5.503
-7.143
-8.582
-9.825
-10.878
-11.748
-12.442
-12.969
-13.339
-13.559
-13.642
-13.596
-13.434
-13.166
-12.803
-12.357
-11.841
-11.266
-10.643
-9.985
-9.303
-8.607
-7.908
-7.216
-6.54
-5.888
-5.269
-4.69
-4.157
-3.676
-3.253
-2.89
-2.591
-2.359
-2.195
-2.1
-2.073
-2.113
-2.218
-2.387
-2.617
-2.905
-3.247
-3.64
-4.079
-4.561
-5.079
-5.631
-6.208
-6.807
-7.421
-8.045
-8.672
-9.297
-9.914
-10.518
-11.104
-11.667
-12.201
-12.703
-13.168
-13.592
-13.972
-14.305
-14.589
-14.822
-15.002
-15.13
-15.205
-15.227
-15.197
-15.115
-14.984
-14.804
-14.577
-14.305
-13.991
-13.637
-13.246
-12.823
-12.371
-11.895
-11.398
-10.885
-10.36
-9.828
-9.292
-8.757
-8.227
-7.705
-7.198
-6.709
-6.242
-5.801
-5.391
-5.015
-4.675
-4.374
-4.114
-3.898
-3.726
-3.601
-3.523
-3.494
-3.516
-3.59
-3.715
-3.892
-4.121
-4.399
-4.726
-5.098
-5.513
-5.965
-6.452
-6.97
-7.515
-8.085
-8.676
-9.286
-9.914
-10.556
-11.209
-11.869
-12.53
-13.185
-13.827
-14.448
-15.042
-15.602
-16.124
-16.603
-17.035
-17.421
-17.757
-18.038
-18.257
-18.401
-18.463
-18.438
-18.329
-18.142
-17.89
-17.591
-17.267
-16.941
-16.63
-16.344
-16.079
-15.821
-15.555
-15.262
-14.936
-14.583
-14.207
-13.808
-13.381
-12.915
-12.385
-11.754
-10.977
-10.002
-8.791
-7.33
-5.633
-3.743
-1.721
0.358
2.434
4.467
6.419
8.257
9.947
11.454
12.727
13.71
14.33
14.495
14.139
13.219
11.73
9.704
7.204
4.318
1.122
-2.326
-5.975
-9.782
-13.705
-17.709
-21.751
-25.794
-29.783
-33.636
-37.286
-40.676
-43.772
-46.573
-49.09
-51.34
-53.331
-55.059
-56.513
-57.691
-58.593
-59.217
-59.555
-59.586
-59.311
-58.761
-57.977
-56.992
-55.827
-54.504
-53.059
-51.572
-50.141
-48.865
-47.835
-47.112
-46.733
-46.718
-47.093
-47.863
-49.017
-50.525
-52.318
-54.331
-56.497
-58.686
-60.701
-62.306
-63.189
-62.986
-61.462
-58.503
-54.163
-48.77
-42.645
-36.007
-29.146
-22.3
-15.361
-7.852
1.203
13.267
29.496
50.555
76.81
108.041
143.326
180.532
216.221
246.591
267.984
278.59
278.746
267.208
242.583
203.472
146.83
77.863
7.896
-52.202
-89.105
-100.367
-94.842
-80.731
-68.324
-61.755
-56.783
-51.504
-44.929
-37.588
-32.99
-32.219
-34.234
-37.855
-41.345
-43.754
-44.969
-44.835
-43.303
-40.593
-37.141
-33.505
-30.278
-27.78
-26.077
-25.19
-25.073
-25.672
-26.917
-28.67
-30.744
-32.99
-35.308
-37.612
-39.866
-42.022
-44.012
-45.788
-47.318
-48.588
-49.608
-50.391
-50.944
-51.276
-51.405
-51.354
-51.156
-50.851
-50.471
-50.057
-49.638
-49.233
-48.863
-48.541
-48.273
-48.061
-47.898
-47.774
-47.678
-47.606
-47.55
-47.503
-47.457
-47.4
-47.32
-47.203
-47.036
-46.808
-46.509
-46.127
-45.654
-45.081
-44.401
-43.609
-42.7
-41.667
-40.5
-39.194
-37.739
-36.13
-34.361
-32.426
-30.321
-28.044
-25.593
-22.968
-20.17
-17.2
-14.061
-10.756
-7.289
-3.665
0.108
4.024
8.073
12.245
16.529
20.91
25.375
29.907
34.49
39.107
43.74
48.37
52.979
57.545
62.052
66.478
70.803
75.009
79.075
82.982
86.713
90.248
93.571
96.667
99.52
102.117
104.446
106.495
108.255
109.716
110.872
111.716
112.243
112.45
112.336
111.902
111.149
110.082
108.706
107.029
105.06
102.809
100.288
97.51
94.489
91.241
87.78
84.125
80.292
76.301
72.17
67.919
63.567
59.133
54.637
50.099
45.536
40.968
36.413
31.888
27.41
22.996
18.662
14.422
10.291
6.281
2.405
-1.327
-4.906
-8.323
-11.572
-14.647
-17.544
-20.26
-22.791
-25.138
-27.301
-29.279
-31.076
-32.694
-34.137
-35.41
-36.518
-37.468
-38.266
-38.919
-39.435
-39.821
-40.085
-40.235
-40.28
-40.228
-40.088
-39.867
-39.575
-39.219
-38.808
-38.349
-37.85
-37.316
-36.754
-36.171
-35.57
-34.958
-34.338
-33.715
-33.091
-32.47
-31.854
-31.246
-30.647
-30.058
-29.48
-28.913
-28.358
-27.813
-27.28
-26.756
-26.241
-25.735
-25.235
-24.742
-24.254
-23.77
-23.288
-22.808
-22.328
-21.846
-21.364
-20.879
-20.391
-19.902
-19.411
-18.918
-18.426
-17.935
-17.447
-16.963
-16.486
-16.017
-15.56
-15.116
-14.689
-14.282
-13.898
-13.539
-13.21
-12.914
-12.653
-12.43
-12.248
-12.108
-12.014
-11.966
-11.967
-12.018
-12.119
-12.272
-12.477
-12.733
-13.042
-13.4
-13.808
-14.261
-14.758
-15.294
-15.867
-16.471
-17.101
-17.753
-18.419
-19.095
-19.774
-20.449
-21.111
-21.754
-22.368
-22.948
-23.483
-23.968
-24.394
-24.756
-25.046
-25.26
-25.392
-25.438
-25.393
-25.254
-25.017
-24.68
-24.241
-23.698
-23.05
-22.297
-21.441
-20.485
-19.432
-18.286
-17.051
-15.734
-14.34
-12.877
-11.353
-9.776
-8.155
-6.5
-4.823
-3.136
-1.452
0.217
1.859
3.461
5.011
6.495
7.904
9.228
10.457
11.58
12.59
13.475
14.229
14.844
15.312
15.623
15.771
15.748
15.553
15.181
14.633
13.907
13.004
11.929
10.69
9.291
7.737
6.034
4.184
2.195
0.077
-2.158
-4.498
-6.931
-9.438
-12.001
-14.598
-17.213
-19.835
-22.464
-25.097
-27.726
-30.34
-32.922
-35.45
-37.901
-40.242
-42.43
-44.424
-46.198
-47.739
-49.045
-50.116
-50.948
-51.528
-51.837
-51.866
-51.611
-51.06
-50.215
-49.099
-47.756
-46.266
-44.718
-43.162
-41.632
-40.162
-38.784
-37.555
-36.519
-35.649
-34.918
-34.368
-34.008
-33.792
-33.573
-32.9
-31.25
-28.41
-24.298
-18.823
-12.161
-4.536
3.647
11.088
16.28
18.578
17.888
14.494
9.348
3.437
-1.91
-3.651
2.023
16.354
38.007
65.229
95.378
130.524
177.706
237.58
305.277
368.172
404.779
402.188
357.774
276.931
176.502
72.729
-21.412
-92.928
-135.65
-149.287
-138.745
-115.984
-91.906
-72.442
-58.833
-47.375
-35.45
-23.514
-13.332
-7.644
-7.126
-10.296
-15.449
-20.668
-24.776
-27.509
-28.654
-28.249
-26.721
-24.533
-22.214
-20.345
-19.173
-18.735
-19.033
-19.946
-21.322
-23.033
-24.883
-26.683
-28.336
-29.793
-31.051
-32.127
-32.998
-33.642
-34.058
-34.246
-34.228
-34.027
-33.651
-33.12
-32.458
-31.699
-30.882
-30.045
-29.222
-28.434
-27.697
-27.022
-26.42
-25.898
-25.458
-25.099
-24.814
-24.594
-24.436
-24.333
-24.277
-24.259
-24.267
-24.287
-24.306
-24.309
-24.284
-24.22
-24.105
-23.929
-23.681
-23.35
-22.929
-22.41
-21.781
-21.033
-20.155
-19.138
-17.972
-16.651
-15.165
-13.51
-11.68
-9.671
-7.481
-5.108
-2.553
0.185
3.104
6.2
9.47
12.908
16.507
20.259
24.155
28.184
32.335
36.594
40.946
45.377
49.87
54.407
58.969
63.538
68.092
72.613
77.078
81.467
85.76
89.934
93.97
97.847
101.546
105.046
108.33
111.381
114.182
116.717
118.973
120.937
122.599
123.951
124.986
125.69
126.057
126.081
125.758
125.095
124.09
122.734
121.036
119.028
116.734
114.186
111.396
108.341
105.03
101.519
97.796
93.798
89.48
84.792
79.749
74.478
69.029
63.313
57.471
51.933
46.799
41.975
37.535
33.056
29.399
29.101
31.58
34.565
34.213
23.358
2.608
-20.854
-39.82
-44.067
-33.15
-16.675
-2.05
2.654
-3.801
-14.215
-24.22
-30.777
-33.039
-33.955
-34.825
-35.566
-36.282
-36.535
-36.235
-35.789
-35.321
-34.778
-34.182
-33.565
-32.923
-32.253
-31.53
-30.699
-29.753
-28.735
-27.667
-26.557
-25.418
-24.257
-23.087
-21.927
-20.79
-19.678
-18.599
-17.558
-16.563
-15.62
-14.733
-13.906
-13.143
-12.446
-11.817
-11.257
-10.767
-10.347
-9.997
-9.715
-9.5
-9.35
-9.261
-9.231
-9.256
-9.332
-9.457
-9.625
-9.834
-10.078
-10.353
-10.656
-10.981
-11.325
-11.683
-12.05
-12.423
-12.798
-13.172
-13.541
-13.902
-14.253
-14.592
-14.919
-15.23
-15.525
-15.804
-16.066
-16.311
-16.539
-16.75
-16.945
-17.127
-17.296
-17.455
-17.606
-17.751
-17.892
-18.033
-18.175
-18.321
-18.474
-18.635
-18.806
-18.991
-19.191
-19.408
-19.646
-19.904
-20.186
-20.491
-20.821
-21.176
-21.554
-21.956
-22.379
-22.821
-23.282
-23.757
-24.244
-24.739
-25.239
-25.739
-26.234
-26.718
-27.186
-27.631
-28.047
-28.427
-28.767
-29.06
-29.3
-29.482
-29.601
-29.652
-29.63
-29.531
-29.35
-29.082
-28.723
-28.272
-27.724
-27.078
-26.333
-25.489
-24.546
-23.507
-22.373
-21.146
-19.832
-18.434
-16.957
-15.409
-13.795
-12.125
-10.408
-8.652
-6.87
-5.073
-3.272
-1.477
0.299
2.046
3.753
5.408
7.002
8.522
9.96
11.304
12.541
13.661
14.651
15.502
16.203
16.746
17.122
17.326
17.355
17.208
16.881
16.376
15.691
14.829
13.79
12.575
11.186
9.626
7.902
6.025
4.005
1.851
-0.427
-2.821
-5.326
-7.938
-10.648
-13.456
-16.352
-19.322
-22.342
-25.372
-28.367
-31.287
-34.095
-36.755
-39.234
-41.489
-43.483
-45.195
-46.601
-47.683
-48.419
-48.788
-48.789
-48.45
-47.835
-47.035
-46.154
-45.289
-44.524
-43.927
-43.589
-43.619
-44.119
-45.176
-46.83
-49.062
-51.903
-55.429
-59.588
-64.221
-68.951
-73.131
-76.314
-78.329
-79.018
-78.261
-76.036
-72.299
-67.605
-63.312
-60.311
-58.835
-58.648
-58.868
-58.687
-57.683
-54.289
-45.343
-28.199
-0.99
35.555
77.563
122.426
169.548
221.108
279.785
342.685
400.311
437.629
441.53
406.936
338.478
249.514
152.278
58.216
-22.926
-86.965
-127.276
-143.278
-142.387
-130.009
-115.213
-103.108
-91.036
-79.274
-67.712
-56.648
-49.672
-47.905
-50.214
-55.428
-61.474
-66.368
-69.449
-70.453
-69.207
-66.119
-61.77
-56.646
-51.399
-46.686
-42.787
-39.818
-37.822
-36.64
-36.128
-36.192
-36.674
-37.434
-38.382
-39.431
-40.509
-41.55
-42.474
-43.214
-43.726
-43.984
-43.981
-43.716
-43.195
-42.444
-41.493
-40.372
-39.113
-37.734
-36.261
-34.731
-33.182
-31.665
-30.216
-28.859
-27.614
-26.491
-25.497
-24.632
-23.89
-23.254
-22.71
-22.246
-21.855
-21.528
-21.257
-21.027
-20.823
-20.631
-20.436
-20.228
-19.993
-19.72
-19.397
-19.014
-18.563
-18.038
-17.431
-16.731
-15.929
-15.016
-13.982
-12.82
-11.523
-10.082
-8.492
-6.75
-4.853
-2.798
-0.587
1.782
4.306
6.985
9.814
12.788
15.902
19.149
22.522
26.01
29.602
33.288
37.054
40.887
44.772
48.693
52.635
56.579
60.509
64.406
68.252
72.027
75.712
79.289
82.739
86.043
89.184
92.146
94.912
97.468
99.8
101.896
103.745
105.335
106.659
107.709
108.478
108.961
109.154
109.057
108.667
107.987
107.018
105.766
104.236
102.435
100.372
98.058
95.504
92.725
89.734
86.548
83.184
79.661
75.998
72.214
68.33
64.367
60.344
56.283
52.203
48.124
44.064
40.043
36.078
32.186
28.383
24.685
21.106
17.659
14.356
11.21
8.229
5.422
2.796
0.358
-1.887
-3.937
-5.789
-7.441
-8.896
-10.154
-11.22
-12.099
-12.796
-13.321
-13.68
-13.885
-13.949
-13.878
-13.683
-13.375
-12.963
-12.459
-11.881
-11.231
-10.514
-9.752
-8.966
-8.172
-7.392
-6.622
-5.846
-5.088
-4.376
-3.668
-2.936
-2.156
-1.292
-0.381
0.504
1.4
2.375
3.244
3.791
4.148
4.302
4.215
4.358
3.476
0.348
-3.272
-6.847
-7.159
-0.356
9.309
19.003
24.505
20.013
10.667
0.822
-6.535
-6.474
-2.516
1.77
5.592
6.774
6.581
6.641
6.645
6.802
7.006
6.928
6.787
6.755
6.779
6.846
6.978
7.172
7.416
7.702
7.998
8.266
8.519
8.771
9.012
9.241
9.455
9.649
9.827
9.99
10.136
10.262
10.367
10.451
10.515
10.559
10.584
10.59
10.578
10.549
10.503
10.442
10.365
10.273
10.166
10.043
9.903
9.745
9.567
9.369
9.149
8.908
8.645
8.362
8.06
7.742
7.412
7.075
6.734
6.393
6.053
5.72
5.395
5.079
4.773
4.476
4.19
3.919
3.666
3.437
3.236
3.068
2.939
2.857
2.83
2.86
2.949
3.101
3.319
3.615
4.002
4.489
5.078
5.771
6.565
7.457
8.437
9.485
10.564
11.643
12.699
13.725
14.726
15.705
16.665
17.608
18.535
19.465
20.421
21.417
22.463
23.568
24.758
26.085
27.624
29.44
31.567
34.007
36.738
39.736
42.962
46.364
49.866
53.362
56.754
59.965
62.939
65.616
67.921
69.745
70.953
71.438
71.132
70.001
68.039
65.246
61.647
57.298
52.299
46.781
40.856
34.605
28.085
21.355
14.49
7.598
0.794
-5.832
-12.223
-18.337
-24.141
-29.599
-34.698
-39.45
-43.896
-48.089
-52.046
-55.747
-59.153
-62.229
-64.961
-67.359
-69.436
-71.184
-72.581
-73.617
-74.305
-74.675
-74.753
-74.554
-74.094
-73.414
-72.622
-71.854
-71.251
-70.94
-71.004
-71.494
-72.454
-73.923
-75.933
-78.5
-81.589
-85.125
-89.011
-93.09
-97.144
-100.938
-104.132
-106.278
-107.012
-106.047
-103.296
-99.012
-93.498
-86.915
-79.426
-71.259
-62.506
-52.92
-41.572
-26.896
-7.472
16.339
42.588
69.981
98.247
130.613
171.828
220.903
270.644
307.001
314.265
286.466
229.706
159.569
93.044
39.975
0.98
-29.213
-54.146
-74.156
-88.006
-93.879
-93.031
-88.801
-83.427
-78.717
-76.169
-76.262
-79.155
-84.586
-91.116
-97.076
-101.664
-104.49
-105.323
-104.242
-101.313
-96.703
-91.098
-85.332
-79.898
-75.07
-70.939
-67.455
-64.653
-62.601
-61.237
-60.427
-60.049
-59.997
-60.217
-60.697
-61.386
-62.191
-62.994
-63.688
-64.207
-64.52
-64.622
-64.501
-64.142
-63.542
-62.713
-61.687
-60.497
-59.173
-57.732
-56.196
-54.598
-52.979
-51.39
-49.874
-48.449
-47.131
-45.921
-44.823
-43.838
-42.961
-42.174
-41.463
-40.814
-40.214
-39.657
-39.13
-38.616
-38.096
-37.551
-36.964
-36.321
-35.607
-34.807
-33.909
-32.902
-31.776
-30.524
-29.137
-27.606
-25.92
-24.069
-22.046
-19.843
-17.454
-14.87
-12.089
-9.106
-5.921
-2.533
1.057
4.846
8.832
13.008
17.369
21.904
26.604
31.455
36.445
41.556
46.768
52.062
57.419
62.819
68.239
73.66
79.059
84.417
89.715
94.933
100.048
105.036
109.873
114.534
118.996
123.233
127.22
130.935
134.355
137.462
140.244
142.687
144.776
146.493
147.819
148.742
149.258
149.365
149.064
148.364
147.28
145.842
144.093
142.067
139.785
137.261
134.497
131.496
128.268
124.817
121.149
117.268
113.17
108.863
104.363
99.669
94.767
89.62
84.164
78.364
72.222
65.754
59.001
52.015
44.85
37.583
30.317
23.139
16.129
9.353
2.848
-3.323
-9.077
-14.314
-18.902
-22.749
-25.809
-28.051
-29.474
-30.1
-29.969
-29.161
-27.805
-26.003
-23.839
-21.381
-18.669
-15.764
-12.751
-9.721
-6.782
-4.021
-1.495
0.744
2.654
4.221
5.448
6.372
7.07
7.596
7.978
8.237
8.37
8.386
8.304
8.141
7.912
7.632
7.308
6.95
6.571
6.171
5.74
5.253
4.668
3.959
3.114
2.124
0.994
-0.271
-1.67
-3.191
-4.816
-6.532
-8.326
-10.188
-12.113
-14.091
-16.107
-18.146
-20.19
-22.222
-24.232
-26.207
-28.138
-30.018
-31.841
-33.604
-35.308
-36.951
-38.533
-40.052
-41.505
-42.891
-44.21
-45.462
-46.646
-47.763
-48.817
-49.811
-50.751
-51.641
-52.488
-53.298
-54.076
-54.829
-55.565
-56.288
-57.005
-57.722
-58.445
-59.179
-59.929
-60.699
-61.492
-62.313
-63.162
-64.042
-64.952
-65.891
-66.858
-67.851
-68.868
-69.904
-70.958
-72.025
-73.101
-74.181
-75.259
-76.331
-77.388
-78.424
-79.431
-80.401
-81.325
-82.195
-83.003
-83.741
-84.401
-84.974
-85.454
-85.835
-86.109
-86.27
-86.312
-86.231
-86.023
-85.684
-85.213
-84.607
-83.867
-82.994
-81.991
-80.86
-79.605
-78.231
-76.744
-75.15
-73.456
-71.669
-69.799
-67.853
-65.842
-63.777
-61.671
-59.536
-57.384
-55.227
-53.079
-50.953
-48.861
-46.816
-44.828
-42.91
-41.073
-39.329
-37.689
-36.163
-34.763
-33.499
-32.381
-31.418
-30.615
-29.98
-29.515
-29.223
-29.103
-29.155
-29.373
-29.753
-30.293
-30.99
-31.841
-32.839
-33.975
-35.243
-36.634
-38.142
-39.754
-41.455
-43.225
-45.051
-46.924
-48.843
-50.809
-52.814
-54.843
-56.88
-58.914
-60.931
-62.908
-64.805
-66.56
-68.128
-69.476
-70.593
-71.48
-72.126
-72.512
-72.612
-72.413
-71.913
-71.123
-70.057
-68.7
-67.055
-65.152
-63.058
-60.915
-58.872
-57.026
-55.426
-54.087
-52.988
-52.169
-51.764
-51.729
-51.851
-51.917
-51.655
-51.012
-50.24
-49.351
-47.959
-45.906
-43.393
-40.803
-38.964
-38.244
-38.025
-37.931
-38.085
-38.264
-37.796
-35.519
-29.289
-17.469
-0.103
22.675
50.861
83.653
119.612
156.272
189.637
215.832
232.557
237.965
230.549
210.076
177.31
134.55
85.915
35.97
-11.397
-52.823
-85.406
-107.411
-118.188
-118.497
-110.579
-97.316
-81.638
-66.006
-52.502
-42.577
-36.893
-35.411
-37.389
-41.594
-46.623
-51.461
-55.34
-57.78
-58.808
-58.417
-56.495
-53.511
-50.233
-46.992
-44.378
-41.698
-36.365
-28.767
-21.19
-17.166
-23.593
-40.165
-59.627
-74.916
-76.044
-62.027
-42.396
-24.529
-16.29
-19.337
-26.574
-33.551
-37.337
-36.923
-35.212
-33.614
-32.056
-30.687
-29.113
-27.229
-25.441
-23.889
-22.516
-21.34
-20.388
-19.64
-19.069
-18.63
-18.25
-17.899
-17.602
-17.355
-17.135
-16.928
-16.712
-16.473
-16.206
-15.898
-15.528
-15.084
-14.552
-13.92
-13.178
-12.314
-11.312
-10.161
-8.847
-7.359
-5.689
-3.828
-1.768
0.494
2.962
5.639
8.532
11.651
15.003
18.583
22.381
26.382
30.559
34.892
39.355
43.915
48.545
53.229
57.955
62.73
67.564
72.451
77.374
82.304
87.212
92.088
96.928
101.728
106.506
111.27
116.038
120.852
125.733
130.667
135.624
140.528
145.289
149.846
154.153
158.176
161.896
165.268
168.251
170.812
172.902
174.47
175.457
175.766
175.33
174.133
172.188
169.564
166.361
162.647
158.48
153.917
148.999
143.778
138.306
132.613
126.743
120.748
114.697
108.691
102.817
97.119
91.619
86.301
81.124
76.069
71.123
66.267
61.5
56.821
52.231
47.754
43.414
39.221
35.175
31.257
27.45
23.755
20.184
16.758
13.513
10.47
7.649
5.074
2.761
0.716
-1.059
-2.572
-3.842
-4.877
-5.687
-6.276
-6.647
-6.811
-6.778
-6.563
-6.18
-5.645
-4.973
-4.185
-3.297
-2.325
-1.285
-0.189
0.954
2.13
3.328
4.534
5.738
6.926
8.087
9.208
10.277
11.284
12.219
13.075
13.844
14.521
15.101
15.581
15.96
16.235
16.408
16.48
16.451
16.324
16.103
15.789
15.388
14.903
14.34
13.702
12.997
12.229
11.406
10.536
9.624
8.674
7.693
6.685
5.658
4.624
3.583
2.534
1.497
0.488
-0.479
-1.387
-2.243
-3.068
-3.84
-4.537
-5.205
-5.879
-6.586
-7.369
-8.195
-8.995
-9.81
-10.713
-11.521
-12.019
-12.34
-12.475
-12.385
-12.545
-11.689
-8.588
-5.008
-1.486
-1.263
-8.219
-18.067
-27.95
-33.614
-29.214
-19.924
-10.133
-2.845
-3.029
-7.135
-11.564
-15.518
-16.801
-16.685
-16.804
-16.846
-17.014
-17.198
-17.06
-16.817
-16.637
-16.461
-16.272
-16.089
-15.903
-15.697
-15.463
-15.165
-14.763
-14.268
-13.694
-13.031
-12.28
-11.439
-10.504
-9.482
-8.376
-7.185
-5.909
-4.552
-3.114
-1.602
-0.019
1.628
3.332
5.083
6.871
8.688
10.52
12.358
14.188
15.999
17.779
19.516
21.199
22.815
24.352
25.799
27.142
28.368
29.466
30.422
31.222
31.855
32.314
32.588
32.67
32.555
32.239
31.721
31.002
30.082
28.957
27.627
26.094
24.362
22.442
20.341
18.071
15.643
13.074
10.383
7.591
4.711
1.748
-1.295
-4.418
-7.612
-10.856
-14.134
-17.428
-20.714
-23.964
-27.139
-30.188
-33.078
-35.79
-38.307
-40.628
-42.731
-44.577
-46.138
-47.373
-48.257
-48.793
-48.972
-48.787
-48.257
-47.39
-46.238
-44.909
-43.492
-42.07
-40.725
-39.448
-38.263
-37.286
-36.521
-35.902
-35.261
-34.161
-32.194
-29.283
-25.411
-20.547
-14.924
-8.827
-2.793
1.898
3.951
2.867
-1.348
-8.225
-16.619
-25.212
-32.395
-35.405
-31.152
-17.768
5.551
38.573
79.626
126.345
176.039
224.621
266.633
297.4
313.557
312.591
295.201
264.794
222.649
170.488
109.858
38.756
-38.001
-110.636
-168.68
-197.853
-193.632
-161.618
-113.307
-67.297
-35.608
-23.073
-27.417
-37.877
-47.228
-50.812
-47.835
-43.503
-40.212
-38.975
-39.926
-40.44
-39.494
-37.444
-34.522
-31.662
-29.618
-28.365
-27.872
-28.13
-28.913
-30.069
-31.506
-33.043
-34.519
-35.86
-37.005
-37.914
-38.59
-39.027
-39.209
-39.138
-38.81
-38.243
-37.46
-36.488
-35.363
-34.119
-32.792
-31.427
-30.066
-28.747
-27.501
-26.344
-25.29
-24.348
-23.524
-22.818
-22.233
-21.761
-21.394
-21.127
-20.953
-20.864
-20.851
-20.903
-21.005
-21.142
-21.3
-21.464
-21.621
-21.76
-21.866
-21.927
-21.931
-21.867
-21.724
-21.489
-21.148
-20.689
-20.098
-19.363
-18.475
-17.421
-16.193
-14.785
-13.189
-11.401
-9.418
-7.238
-4.859
-2.281
0.495
3.468
6.632
9.984
13.517
17.222
21.09
25.11
29.267
33.547
37.934
42.411
46.96
51.56
56.193
60.836
65.468
70.067
74.611
79.077
83.44
87.68
91.773
95.698
99.433
102.96
106.258
109.31
112.101
114.614
116.837
118.756
120.36
121.64
122.587
123.195
123.459
123.375
122.944
122.167
121.045
119.585
117.793
115.676
113.246
110.513
107.491
104.194
100.639
96.843
92.824
88.602
84.198
79.634
74.932
70.113
65.2
60.215
55.18
50.116
45.046
39.989
34.966
29.996
25.099
20.293
15.595
11.021
6.586
2.304
-1.814
-5.755
-9.51
-13.07
-16.428
-19.579
-22.517
-25.239
-27.739
-30.019
-32.082
-33.935
-35.583
-37.032
-38.281
-39.34
-40.231
-40.956
-41.505
-41.87
-42.042
-42.032
-41.885
-41.618
-41.207
-40.689
-40.151
-39.665
-39.307
-39.099
-38.952
-38.845
-38.892
-39
-38.797
-38.204
-37.345
-36.177
-35.103
-33.413
-28.748
-21.552
-14.027
-9.688
-15.251
-30.497
-48.639
-62.982
-64.005
-50.842
-32.546
-16.129
-9.083
-12.923
-20.888
-28.761
-33.738
-34.876
-34.916
-35.149
-35.465
-35.963
-36.226
-36.135
-36.057
-36.105
-36.21
-36.377
-36.619
-36.918
-37.253
-37.586
-37.849
-38.019
-38.121
-38.162
-38.134
-38.038
-37.87
-37.629
-37.325
-36.962
-36.536
-36.05
-35.505
-34.904
-34.254
-33.559
-32.824
-32.053
-31.253
-30.428
-29.586
-28.732
-27.872
-27.013
-26.16
-25.32
-24.498
-23.7
-22.932
-22.201
-21.51
-20.866
-20.275
-19.741
-19.27
-18.866
-18.533
-18.275
-18.094
-17.991
-17.969
-18.026
-18.161
-18.372
-18.656
-19.008
-19.425
-19.901
-20.429
-21.003
-21.616
-22.26
-22.926
-23.606
-24.291
-24.972
-25.64
-26.286
-26.901
-27.478
-28.007
-28.481
-28.891
-29.23
-29.488
-29.66
-29.736
-29.709
-29.572
-29.319
-28.946
-28.448
-27.821
-27.065
-26.179
-25.163
-24.02
-22.751
-21.36
-19.853
-18.234
-16.511
-14.691
-12.782
-10.794
-8.737
-6.622
-4.461
-2.265
-0.046
2.186
4.417
6.638
8.834
10.995
13.109
15.163
17.143
19.035
20.826
22.501
24.048
25.455
26.711
27.806
28.731
29.481
30.052
30.44
30.641
30.654
30.475
30.104
29.542
28.787
27.842
26.708
25.388
23.888
22.216
20.378
18.38
16.225
13.914
11.454
8.855
6.128
3.289
0.358
-2.64
-5.67
-8.689
-11.657
-14.533
-17.278
-19.863
-22.249
-24.408
-26.318
-27.951
-29.291
-30.338
-31.091
-31.571
-31.814
-31.856
-31.755
-31.599
-31.465
-31.453
-31.653
-32.134
-32.971
-34.209
-35.878
-37.995
-40.543
-43.476
-46.733
-50.226
-53.861
-57.529
-61.067
-64.277
-66.923
-68.716
-69.426
-68.786
-66.464
-62.342
-56.428
-48.81
-39.862
-29.916
-19.155
-8.003
3.161
14.534
26.538
39.775
55.286
73.92
96.064
122.16
152.349
184.191
214.698
242.588
264.804
281.636
294.222
296.177
284.111
254.58
203.809
140.468
73.176
8.944
-42.995
-81.999
-109.182
-124.095
-128.955
-124.537
-111.75
-93.638
-73.514
-54.493
-38.795
-27.524
-20.875
-18.276
-19.028
-22.05
-25.738
-28.964
-31.11
-31.836
-31.305
-29.854
-27.738
-25.413
-23.494
-22.316
-22.028
-22.639
-23.955
-25.808
-28.07
-30.551
-33.051
-35.424
-37.57
-39.444
-41.05
-42.383
-43.433
-44.196
-44.669
-44.869
-44.819
-44.548
-44.085
-43.458
-42.703
-41.862
-40.975
-40.089
-39.233
-38.428
-37.687
-37.017
-36.425
-35.913
-35.481
-35.121
-34.825
-34.586
-34.393
-34.241
-34.122
-34.023
-33.93
-33.827
-33.703
-33.545
-33.344
-33.089
-32.769
-32.374
-31.895
-31.325
-30.656
-29.876
-28.976
-27.944
-26.771
-25.446
-23.962
-22.31
-20.482
-18.474
-16.28
-13.9
-11.33
-8.571
-5.623
-2.489
0.829
4.325
7.993
11.825
15.811
19.94
24.2
28.577
33.054
37.615
42.244
46.921
51.627
56.341
61.042
65.71
70.321
74.854
79.285
83.591
87.75
91.74
95.539
99.126
102.48
105.584
108.419
110.969
113.219
115.156
116.768
118.045
118.978
119.561
119.788
119.657
119.167
118.319
117.117
115.565
113.671
111.443
108.892
106.03
102.871
99.431
95.726
91.776
87.598
83.215
78.648
73.92
69.054
64.073
59.001
53.862
48.679
43.476
38.275
33.099
27.969
22.907
17.932
13.062
8.317
3.712
-0.737
-5.018
-9.117
-13.025
-16.731
-20.229
-23.513
-26.578
-29.422
-32.043
-34.44
-36.617
-38.577
-40.323
-41.862
-43.201
-44.349
-45.314
-46.106
-46.737
-47.217
-47.557
-47.77
-47.867
-47.861
-47.762
-47.584
-47.337
-47.033
-46.683
-46.297
-45.884
-45.455
-45.018
-44.579
-44.147
-43.727
-43.326
-42.947
-42.595
-42.272
-41.982
-41.726
-41.503
-41.314
-41.159
-41.034
-40.938
-40.868
-40.822
-40.794
-40.782
-40.782
-40.79
-40.801
-40.811
-40.817
-40.814
-40.799
-40.769
-40.72
-40.649
-40.554
-40.433
-40.284
-40.105
-39.896
-39.656
-39.385
-39.082
-38.748
-38.385
-37.992
-37.572
-37.128
-36.661
-36.175
-35.672
-35.156
-34.631
-34.1
-33.568
-33.037
-32.512
-31.997
-31.495
-31.01
-30.545
-30.104
-29.689
-29.303
-28.949
-28.629
-28.345
-28.099
-27.892
-27.726
-27.602
-27.519
-27.48
-27.485
-27.533
-27.625
-27.76
-27.938
-28.157
-28.417
-28.715
-29.051
-29.421
-29.825
-30.258
-30.72
-31.208
-31.719
-32.25
-32.799
-33.363
-33.939
-34.523
-35.113
-35.704
-36.295
-36.881
-37.459
-38.026
-38.579
-39.114
-39.626
-40.112
-40.568
-40.989
-41.37
-41.709
-41.999
-42.239
-42.423
-42.548
-42.611
-42.61
-42.541
-42.402
-42.189
-41.901
-41.535
-41.089
-40.56
-39.949
-39.254
-38.475
-37.614
-36.67
-35.645
-34.541
-33.36
-32.106
-30.781
-29.389
-27.935
-26.424
-24.862
-23.258
-21.618
-19.953
-18.27
-16.58
-14.891
-13.215
-11.562
-9.939
-8.357
-6.826
-5.357
-3.96
-2.644
-1.421
-0.3
0.707
1.588
2.334
2.936
3.388
3.682
3.812
3.776
3.57
3.197
2.657
1.95
1.075
0.032
-1.179
-2.553
-4.086
-5.771
-7.599
-9.557
-11.63
-13.801
-16.054
-18.379
-20.773
-23.231
-25.747
-28.31
-30.905
-33.514
-36.105
-38.639
-41.071
-43.354
-45.454
-47.355
-49.043
-50.506
-51.74
-52.727
-53.449
-53.898
-54.054
-53.902
-53.433
-52.661
-51.647
-50.479
-49.257
-48.058
-46.901
-45.785
-44.726
-43.735
-42.834
-42.041
-41.297
-40.592
-40.094
-39.923
-40.157
-40.651
-40.811
-40.16
-38.553
-35.843
-31.773
-26.023
-18.295
-9.212
-0.662
5.67
10.024
14.445
20.893
30.607
39.515
39.818
28.494
4.951
-21.106
-29.166
-5.129
61.284
166.623
286.024
394.709
468.166
488.414
459.148
388.12
285.394
169.151
50.391
-57.144
-134.762
-177.152
-184.003
-163.339
-134.692
-108.887
-90.576
-79.875
-69.329
-56.457
-43.006
-30.931
-23.996
-23.029
-26.035
-31.23
-36.496
-40.423
-42.759
-43.301
-42.096
-39.598
-36.297
-32.787
-29.737
-27.487
-26.113
-25.621
-25.873
-26.718
-28.054
-29.692
-31.427
-33.131
-34.699
-36.08
-37.273
-38.246
-38.967
-39.422
-39.595
-39.497
-39.155
-38.588
-37.818
-36.87
-35.757
-34.511
-33.168
-31.762
-30.338
-28.926
-27.545
-26.214
-24.946
-23.75
-22.634
-21.594
-20.618
-19.697
-18.822
-17.985
-17.184
-16.411
-15.654
-14.9
-14.137
-13.352
-12.535
-11.677
-10.767
-9.795
-8.751
-7.631
-6.429
-5.14
-3.755
-2.267
-0.668
1.051
2.896
4.874
6.992
9.256
11.67
14.237
16.957
19.83
22.858
26.037
29.365
32.837
36.449
40.193
44.061
48.045
52.133
56.314
60.574
64.898
69.272
73.678
78.098
82.516
86.913
91.269
95.566
99.784
103.903
107.903
111.766
115.47
118.997
122.329
125.446
128.332
130.972
133.35
135.453
137.27
138.79
140.004
140.904
141.486
141.745
141.679
141.287
140.571
139.533
138.179
136.515
134.549
132.292
129.754
126.95
123.892
120.596
117.08
113.359
109.454
105.383
101.165
96.822
92.375
87.843
83.248
78.611
73.953
69.293
64.651
60.045
55.494
51.013
46.62
42.329
38.153
34.105
30.196
26.435
22.832
19.393
16.124
13.031
10.115
7.381
4.827
2.455
0.262
-1.754
-3.598
-5.273
-6.786
-8.143
-9.351
-10.418
-11.353
-12.164
-12.86
-13.45
-13.945
-14.352
-14.681
-14.941
-15.14
-15.286
-15.386
-15.448
-15.477
-15.48
-15.461
-15.426
-15.378
-15.322
-15.261
-15.197
-15.134
-15.072
-15.014
-14.96
-14.911
-14.867
-14.828
-14.793
-14.76
-14.728
-14.695
-14.66
-14.619
-14.571
-14.513
-14.443
-14.359
-14.258
-14.139
-14
-13.839
-13.657
-13.452
-13.225
-12.976
-12.706
-12.417
-12.11
-11.786
-11.447
-11.096
-10.733
-10.36
-9.98
-9.594
-9.205
-8.815
-8.427
-8.041
-7.663
-7.293
-6.934
-6.59
-6.263
-5.956
-5.671
-5.411
-5.179
-4.977
-4.807
-4.672
-4.572
-4.51
-4.486
-4.499
-4.551
-4.639
-4.763
-4.921
-5.112
-5.335
-5.587
-5.867
-6.172
-6.502
-6.855
-7.228
-7.619
-8.027
-8.447
-8.879
-9.319
-9.765
-10.213
-10.66
-11.102
-11.538
-11.962
-12.37
-12.76
-13.126
-13.464
-13.77
-14.04
-14.27
-14.457
-14.599
-14.691
-14.734
-14.723
-14.659
-14.539
-14.362
-14.126
-13.829
-13.47
-13.048
-12.56
-12.006
-11.386
-10.698
-9.945
-9.125
-8.241
-7.293
-6.284
-5.216
-4.092
-2.915
-1.688
-0.418
0.893
2.236
3.606
4.995
6.395
7.8
9.202
10.593
11.967
13.316
14.632
15.91
17.142
18.32
19.436
20.48
21.442
22.312
23.08
23.736
24.273
24.683
24.959
25.097
25.095
24.951
24.662
24.229
23.648
22.915
22.027
20.987
19.794
18.455
16.973
15.354
13.605
11.738
9.761
7.681
5.494
3.193
0.78
-1.737
-4.344
-7.016
-9.731
-12.463
-15.175
-17.833
-20.395
-22.821
-25.087
-27.179
-29.087
-30.794
-32.263
-33.456
-34.361
-34.981
-35.343
-35.492
-35.46
-35.295
-35.062
-34.817
-34.641
-34.638
-34.892
-35.482
-36.444
-37.755
-39.461
-41.664
-44.339
-47.365
-50.408
-52.912
-54.569
-55.336
-55.167
-54.018
-51.859
-48.734
-45.273
-42.738
-41.947
-43.018
-45.488
-48.512
-51.516
-53.878
-54.1
-49.699
-38.402
-19.03
8.171
42.042
81.652
125.606
171.368
215.111
252.291
279.277
294.038
295.375
282.262
254.823
214.492
164.232
108.706
52.303
-1.402
-48.835
-86.851
-113.635
-128.409
-131.795
-126.144
-113.868
-97.368
-79.664
-63.29
-49.88
-40.549
-35.459
-33.849
-34.999
-37.971
-41.358
-44.199
-45.941
-46.245
-45.278
-43.424
-40.968
-38.339
-36.067
-34.437
-33.584
-33.531
-34.11
-35.169
-36.584
-38.179
-39.791
-41.298
-42.623
-43.74
-44.648
-45.34
-45.803
-46.031
-46.021
-45.79
-45.354
-44.73
-43.943
-43.019
-41.991
-40.902
-39.789
-38.692
-37.64
-36.65
-35.734
-34.902
-34.157
-33.502
-32.935
-32.447
-32.03
-31.678
-31.381
-31.133
-30.924
-30.74
-30.568
-30.392
-30.198
-29.974
-29.708
-29.39
-29.009
-28.555
-28.019
-27.393
-26.67
-25.839
-24.892
-23.818
-22.608
-21.253
-19.746
-18.081
-16.25
-14.25
-12.078
-9.733
-7.215
-4.525
-1.664
1.363
4.551
7.896
11.388
15.021
18.783
22.664
26.652
30.734
34.895
39.121
43.395
47.702
52.023
56.342
60.64
64.898
69.097
73.219
77.244
81.154
84.929
88.551
92.002
95.265
98.322
101.159
103.761
106.114
108.206
110.028
111.571
112.826
113.789
114.455
114.821
114.886
114.649
114.113
113.281
112.156
110.745
109.054
107.093
104.87
102.398
99.688
96.752
93.605
90.262
86.738
83.048
79.21
75.241
71.158
66.979
62.723
58.407
54.05
49.67
45.284
40.908
36.56
32.252
28.001
23.819
19.718
15.711
11.807
8.017
4.35
0.813
-2.588
-5.846
-8.956
-11.917
-14.724
-17.376
-19.874
-22.215
-24.402
-26.435
-28.316
-30.049
-31.636
-33.081
-34.39
-35.567
-36.619
-37.552
-38.373
-39.089
-39.707
-40.233
-40.674
-41.037
-41.328
-41.554
-41.719
-41.831
-41.896
-41.917
-41.901
-41.853
-41.776
-41.674
-41.552
-41.411
-41.256
-41.088
-40.91
-40.724
-40.533
-40.338
-40.142
-39.946
-39.752
-39.56
-39.372
-39.186
-39.004
-38.825
-38.648
-38.473
-38.299
-38.125
-37.952
-37.777
-37.601
-37.423
-37.242
-37.056
-36.865
-36.667
-36.462
-36.249
-36.027
-35.795
-35.554
-35.304
-35.043
-34.772
-34.491
-34.198
-33.894
-33.578
-33.25
-32.908
-32.554
-32.186
-31.806
-31.414
-31.01
-30.596
-30.174
-29.743
-29.306
-28.864
-28.418
-27.97
-27.523
-27.077
-26.636
-26.201
-25.775
-25.36
-24.959
-24.574
-24.207
-23.861
-23.536
-23.236
-22.961
-22.713
-22.494
-22.304
-22.147
-22.022
-21.93
-21.872
-21.849
-21.86
-21.904
-21.981
-22.088
-22.224
-22.386
-22.572
-22.779
-23.003
-23.242
-23.491
-23.746
-24.004
-24.259
-24.508
-24.745
-24.964
-25.162
-25.334
-25.475
-25.579
-25.643
-25.661
-25.631
-25.547
-25.407
-25.207
-24.943
-24.614
-24.217
-23.751
-23.215
-22.609
-21.933
-21.189
-20.378
-19.504
-18.57
-17.579
-16.536
-15.446
-14.314
-13.147
-11.95
-10.731
-9.497
-8.254
-7.012
-5.779
-4.562
-3.371
-2.213
-1.099
-0.039
0.958
1.884
2.727
3.479
4.13
4.672
5.099
5.406
5.59
5.645
5.568
5.358
5.012
4.531
3.914
3.157
2.258
1.22
0.047
-1.252
-2.671
-4.207
-5.859
-7.625
-9.499
-11.473
-13.541
-15.697
-17.931
-20.222
-22.539
-24.833
-27.066
-29.207
-31.228
-33.107
-34.816
-36.319
-37.593
-38.619
-39.383
-39.877
-40.096
-40.031
-39.704
-39.159
-38.467
-37.74
-37.076
-36.556
-36.239
-36.148
-36.334
-36.869
-37.811
-39.208
-41.073
-43.35
-46.023
-49.146
-52.636
-56.31
-59.787
-62.419
-63.764
-63.706
-62.139
-58.954
-54.209
-47.98
-40.887
-34.361
-29.287
-25.788
-23.752
-22.572
-21.449
-19.906
-16.344
-7.658
8.405
33.315
66.613
104.9
145.036
184.41
223.819
267.369
316.67
371.197
419.779
441.879
421.526
346.61
223.54
79.396
-57.127
-155.193
-198.227
-192.704
-153.081
-102.836
-63.298
-41.021
-36.604
-44.123
-52.889
-59.455
-62.894
-62.504
-62.531
-63.987
-65.648
-68.166
-69.597
-68.628
-65.837
-61.157
-55.213
-49.078
-43.244
-37.965
-33.489
-29.785
-26.927
-25.414
-25.286
-26.138
-27.848
-29.984
-33.177
-39.587
-48.53
-57.596
-62.628
-56.507
-38.733
-14.187
8.982
17.713
7.247
-19.887
-55.266
-82.97
-93.969
-85.09
-60.557
-33.661
-13.199
-4.636
-7.896
-15.545
-22.909
-27.257
-27.824
-27.29
-26.876
-26.545
-26.37
-25.85
-24.889
-23.913
-23.071
-22.351
-21.771
-21.302
-20.903
-20.55
-20.191
-19.747
-19.186
-18.523
-17.761
-16.896
-15.926
-14.84
-13.633
-12.307
-10.856
-9.27
-7.54
-5.661
-3.628
-1.438
0.91
3.417
6.082
8.906
11.886
15.019
18.3
21.725
25.287
28.978
32.79
36.712
40.731
44.835
49.009
53.24
57.511
61.805
66.105
70.394
74.654
78.865
83.01
87.067
91.019
94.844
98.524
102.039
105.369
108.497
111.405
114.076
116.494
118.646
120.518
122.097
123.374
124.339
124.984
125.304
125.294
124.951
124.276
123.27
121.936
120.28
118.308
116.031
113.457
110.6
107.473
104.091
100.471
96.63
92.588
88.364
83.981
79.459
74.822
70.091
65.291
60.445
55.575
50.705
45.858
41.054
36.316
31.665
27.119
22.697
18.418
14.296
10.346
6.582
3.014
-0.347
-3.494
-6.42
-9.119
-11.59
-13.829
-15.838
-17.616
-19.169
-20.499
-21.613
-22.517
-23.22
-23.732
-24.062
-24.222
-24.224
-24.08
-23.804
-23.409
-22.908
-22.315
-21.645
-20.91
-20.124
-19.299
-18.449
-17.585
-16.718
-15.859
-15.017
-14.201
-13.419
-12.679
-11.986
-11.347
-10.765
-10.245
-9.79
-9.401
-9.081
-8.829
-8.646
-8.53
-8.481
-8.495
-8.57
-8.703
-8.89
-9.126
-9.406
-9.725
-10.078
-10.459
-10.863
-11.284
-11.716
-12.155
-12.595
-13.031
-13.459
-13.875
-14.274
-14.652
-15.008
-15.336
-15.636
-15.904
-16.138
-16.338
-16.501
-16.627
-16.715
-16.764
-16.774
-16.745
-16.677
-16.572
-16.431
-16.254
-16.046
-15.807
-15.541
-15.252
-14.942
-14.616
-14.277
-13.93
-13.578
-13.226
-12.877
-12.537
-12.208
-11.896
-11.604
-11.336
-11.096
-10.886
-10.71
-10.572
-10.472
-10.415
-10.403
-10.436
-10.519
-10.652
-10.837
-11.075
-11.368
-11.714
-12.114
-12.567
-13.072
-13.624
-14.223
-14.864
-15.543
-16.255
-16.997
-17.761
-18.542
-19.334
-20.131
-20.925
-21.709
-22.475
-23.217
-23.926
-24.597
-25.221
-25.793
-26.306
-26.753
-27.13
-27.43
-27.648
-27.78
-27.82
-27.763
-27.607
-27.348
-26.983
-26.511
-25.932
-25.245
-24.453
-23.558
-22.564
-21.474
-20.294
-19.029
-17.687
-16.275
-14.8
-13.273
-11.702
-10.098
-8.471
-6.833
-5.196
-3.569
-1.966
-0.396
1.129
2.598
4.002
5.33
6.572
7.72
8.762
9.69
10.493
11.162
11.685
12.056
12.268
12.313
12.19
11.894
11.428
10.794
9.996
9.038
7.924
6.656
5.236
3.67
1.965
0.128
-1.828
-3.894
-6.06
-8.307
-10.619
-12.983
-15.391
-17.849
-20.359
-22.915
-25.505
-28.112
-30.71
-33.282
-35.803
-38.235
-40.542
-42.687
-44.637
-46.384
-47.932
-49.27
-50.38
-51.221
-51.763
-51.997
-51.944
-51.629
-51.078
-50.314
-49.366
-48.286
-47.15
-46.054
-45.093
-44.339
-43.841
-43.596
-43.65
-44.134
-45.066
-46.321
-47.617
-48.439
-48.354
-47.285
-45.203
-41.995
-37.837
-33.039
-28.23
-24.824
-24.098
-26.342
-31.32
-38.381
-46.253
-53.671
-58.996
-59.232
-51.405
-34.119
-7.113
28.661
71.15
118.342
167.631
214.515
254.028
282.633
297.917
299.021
286.386
260.346
222.189
175.455
124.674
73.892
26.76
-14.377
-48.106
-72.607
-87.037
-92.446
-90.813
-84.508
-76.05
-66.952
-58.245
-51.456
-47.475
-46.257
-47.307
-49.541
-51.714
-53.332
-54.203
-53.949
-52.495
-49.958
-46.556
-42.867
-39.535
-36.844
-34.903
-33.768
-33.364
-33.648
-34.587
-36.028
-37.775
-39.68
-41.622
-43.52
-45.344
-47.051
-48.575
-49.871
-50.904
-51.656
-52.137
-52.365
-52.349
-52.1
-51.642
-50.998
-50.205
-49.308
-48.348
-47.366
-46.392
-45.45
-44.558
-43.732
-42.981
-42.304
-41.697
-41.146
-40.643
-40.182
-39.757
-39.363
-38.992
-38.636
-38.284
-37.922
-37.537
-37.116
-36.646
-36.113
-35.506
-34.81
-34.015
-33.112
-32.095
-30.958
-29.693
-28.285
-26.723
-24.986
-23.064
-20.951
-18.642
-16.135
-13.436
-10.555
-7.516
-4.354
-1.096
2.246
5.667
9.174
12.772
16.461
20.246
24.131
28.122
32.231
36.46
40.799
45.262
49.868
54.662
59.715
65.065
70.718
76.662
82.862
89.27
95.835
102.481
109.107
115.627
121.956
128.029
133.808
139.224
144.192
148.608
152.337
155.282
157.391
158.627
158.978
158.462
157.106
154.984
152.217
148.897
145.101
140.891
136.298
131.378
126.208
120.873
115.475
110.097
104.792
99.612
94.598
89.766
85.119
80.624
76.207
71.825
67.453
63.081
58.719
54.369
50.022
45.673
41.32
36.961
32.602
28.246
23.892
19.554
15.255
11.032
6.939
3.017
-0.711
-4.222
-7.507
-10.559
-13.367
-15.931
-18.258
-20.353
-22.219
-23.859
-25.272
-26.464
-27.445
-28.229
-28.833
-29.273
-29.562
-29.716
-29.748
-29.672
-29.502
-29.247
-28.916
-28.521
-28.071
-27.581
-27.063
-26.531
-25.996
-25.472
-24.969
-24.501
-24.076
-23.704
-23.394
-23.151
-22.983
-22.896
-22.893
-22.979
-23.156
-23.425
-23.789
-24.245
-24.794
-25.432
-26.157
-26.963
-27.846
-28.799
-29.816
-30.89
-32.012
-33.174
-34.367
-35.583
-36.812
-38.044
-39.268
-40.475
-41.656
-42.798
-43.894
-44.932
-45.904
-46.8
-47.614
-48.336
-48.96
-49.479
-49.889
-50.183
-50.359
-50.413
-50.343
-50.147
-49.827
-49.382
-48.814
-48.127
-47.324
-46.41
-45.39
-44.271
-43.061
-41.767
-40.399
-38.965
-37.475
-35.939
-34.366
-32.768
-31.155
-29.536
-27.923
-26.326
-24.754
-23.218
-21.727
-20.29
-18.915
-17.608
-16.377
-15.228
-14.166
-13.194
-12.316
-11.535
-10.851
-10.266
-9.779
-9.389
-9.092
-8.885
-8.763
-8.721
-8.752
-8.849
-9.004
-9.209
-9.456
-9.736
-10.04
-10.359
-10.682
-11.001
-11.306
-11.586
-11.833
-12.038
-12.191
-12.285
-12.314
-12.271
-12.152
-11.952
-11.667
-11.295
-10.834
-10.283
-9.641
-8.909
-8.089
-7.182
-6.194
-5.129
-3.995
-2.798
-1.547
-0.249
1.085
2.445
3.824
5.209
6.592
7.961
9.304
10.609
11.865
13.057
14.174
15.202
16.128
16.94
17.631
18.191
18.613
18.892
19.024
19.007
18.839
18.518
18.042
17.404
16.603
15.637
14.506
13.215
11.769
10.176
8.446
6.591
4.624
2.553
0.378
-1.903
-4.286
-6.765
-9.326
-11.948
-14.606
-17.267
-19.889
-22.435
-24.867
-27.16
-29.306
-31.301
-33.144
-34.828
-36.331
-37.631
-38.719
-39.586
-40.222
-40.641
-40.87
-40.965
-41.012
-41.079
-41.197
-41.408
-41.742
-42.234
-42.937
-43.86
-44.953
-46.223
-47.737
-49.466
-51.322
-53.01
-53.962
-53.815
-52.515
-50.021
-46.29
-41.484
-35.84
-30.183
-26.14
-24.692
-25.893
-29.435
-34.54
-40.124
-45.185
-47.677
-44.156
-32.262
-11.091
19.307
57.447
101.337
148.883
196.2
237.524
267.899
284.656
287.486
277.419
254.664
215.762
156.97
80.479
-5.119
-83.453
-137.294
-158.928
-151.541
-128.132
-103.045
-84.455
-73.279
-64.832
-55.689
-45.573
-36.17
-30.513
-29.36
-31.431
-35.302
-39.197
-42.044
-43.667
-43.886
-42.745
-40.667
-38.065
-35.398
-33.178
-31.624
-30.764
-30.604
-31.042
-31.948
-33.205
-34.643
-36.08
-37.409
-38.579
-39.571
-40.389
-41.01
-41.406
-41.563
-41.481
-41.18
-40.68
-39.992
-39.13
-38.113
-36.966
-35.735
-34.469
-33.195
-31.932
-30.693
-29.482
-28.325
-27.256
-26.261
-25.324
-24.477
-23.745
-23.151
-22.732
-22.457
-22.263
-22.183
-22.272
-22.337
-22.141
-21.792
-21.266
-20.499
-19.921
-18.281
-14.372
-9.912
-5.445
-4.124
-9.712
-18.03
-26.27
-30.282
-24.389
-13.616
-2.237
6.805
8.671
6.771
4.532
2.697
3.381
5.348
7.058
8.839
10.488
12.128
14.075
16.129
18.151
20.215
22.356
24.61
27.038
29.733
32.822
36.406
40.562
45.309
50.597
56.407
62.733
69.53
76.751
84.341
92.216
100.303
108.527
116.759
124.846
132.639
139.953
146.646
152.609
157.713
161.894
165.097
167.27
168.406
168.52
167.624
165.751
162.957
159.299
154.889
149.874
144.373
138.52
132.43
126.2
119.951
113.776
107.742
101.906
96.298
90.934
85.838
81.025
76.479
72.181
68.085
64.119
60.243
56.421
52.623
48.827
45.002
41.121
37.182
33.194
29.169
25.123
21.065
17.004
12.97
8.994
5.115
1.377
-2.19
-5.568
-8.735
-11.679
-14.387
-16.851
-19.073
-21.061
-22.823
-24.365
-25.691
-26.805
-27.72
-28.449
-29.006
-29.405
-29.659
-29.78
-29.779
-29.669
-29.458
-29.156
-28.769
-28.304
-27.768
-27.172
-26.525
-25.835
-25.114
-24.371
-23.615
-22.856
-22.103
-21.362
-20.64
-19.943
-19.276
-18.641
-18.044
-17.485
-16.967
-16.49
-16.054
-15.658
-15.302
-14.983
-14.698
-14.447
-14.225
-14.031
-13.861
-13.713
-13.584
-13.472
-13.376
-13.292
-13.219
-13.156
-13.1
-13.049
-13.002
-12.956
-12.912
-12.866
-12.819
-12.769
-12.717
-12.664
-12.61
-12.557
-12.507
-12.461
-12.424
-12.398
-12.386
-12.391
-12.418
-12.469
-12.549
-12.66
-12.806
-12.99
-13.213
-13.478
-13.786
-14.137
-14.531
-14.968
-15.445
-15.961
-16.514
-17.1
-17.716
-18.357
-19.019
-19.698
-20.387
-21.082
-21.775
-22.461
-23.133
-23.783
-24.406
-24.992
-25.535
-26.028
-26.461
-26.829
-27.124
-27.34
-27.471
-27.51
-27.453
-27.296
-27.037
-26.671
-26.199
-25.618
-24.931
-24.138
-23.242
-22.245
-21.153
-19.971
-18.705
-17.362
-15.952
-14.481
-12.961
-11.399
-9.808
-8.197
-6.578
-4.961
-3.358
-1.781
-0.244
1.24
2.658
3.997
5.247
6.394
7.428
8.34
9.123
9.772
10.282
10.648
10.864
10.928
10.836
10.587
10.177
9.604
8.869
7.971
6.914
5.704
4.345
2.839
1.192
-0.599
-2.527
-4.584
-6.759
-9.039
-11.406
-13.838
-16.299
-18.751
-21.157
-23.48
-25.683
-27.736
-29.6
-31.25
-32.666
-33.822
-34.705
-35.317
-35.66
-35.754
-35.644
-35.369
-34.991
-34.597
-34.262
-34.081
-34.151
-34.547
-35.353
-36.626
-38.396
-40.686
-43.484
-46.751
-50.428
-54.422
-58.621
-62.908
-67.108
-71.017
-74.415
-77.02
-78.597
-78.877
-77.493
-74.286
-69.25
-62.44
-54.21
-44.917
-34.703
-23.968
-13.241
-2.432
8.79
20.903
35.103
52.481
73.402
98.33
127.715
159.266
190.267
219.778
244.303
263.692
279.073
283.779
274.008
245.999
195.311
130.27
60.156
-7.339
-62.614
-104.813
-134.918
-152.357
-158.881
-154.732
-141.107
-121.418
-99.168
-77.766
-59.5
-45.488
-36.228
-31.441
-30.363
-31.848
-34.231
-36.236
-37.284
-37.085
-35.735
-33.54
-30.763
-27.852
-25.452
-23.933
-23.406
-23.859
-25.083
-26.864
-29.06
-31.458
-33.821
-36.014
-37.953
-39.587
-40.935
-41.991
-42.74
-43.192
-43.356
-43.245
-42.884
-42.303
-41.53
-40.612
-39.593
-38.524
-37.454
-36.419
-35.436
-34.523
-33.686
-32.927
-32.248
-31.645
-31.108
-30.632
-30.213
-29.843
-29.517
-29.223
-28.951
-28.687
-28.419
-28.133
-27.819
-27.469
-27.074
-26.626
-26.118
-25.543
-24.895
-24.167
-23.35
-22.435
-21.411
-20.271
-19.004
-17.602
-16.059
-14.368
-12.524
-10.522
-8.361
-6.038
-3.553
-0.904
1.907
4.879
8.009
11.292
14.723
18.297
22.005
25.839
29.789
33.843
37.991
42.218
46.511
50.854
55.232
59.627
64.022
68.398
72.735
77.015
81.218
85.323
89.311
93.164
96.86
100.383
103.716
106.84
109.74
112.402
114.811
116.955
118.823
120.404
121.689
122.672
123.345
123.705
123.749
123.474
122.881
121.971
120.746
119.211
117.373
115.238
112.815
110.116
107.152
103.937
100.486
96.813
92.937
88.873
84.641
80.259
75.745
71.121
66.404
61.615
56.774
51.9
47.013
42.131
37.274
32.459
27.703
23.023
18.435
13.955
9.596
5.371
1.295
-2.623
-6.372
-9.943
-13.328
-16.52
-19.514
-22.306
-24.893
-27.274
-29.447
-31.415
-33.178
-34.739
-36.102
-37.271
-38.252
-39.051
-39.675
-40.131
-40.428
-40.573
-40.576
-40.447
-40.194
-39.828
-39.36
-38.799
-38.155
-37.44
-36.663
-35.834
-34.964
-34.062
-33.137
-32.197
-31.253
-30.31
-29.377
-28.46
-27.566
-26.7
-25.868
-25.074
-24.321
-23.614
-22.955
-22.346
-21.79
-21.287
-20.839
-20.446
-20.107
-19.822
-19.59
-19.409
-19.277
-19.192
-19.151
-19.15
-19.187
-19.257
-19.358
-19.485
-19.635
-19.806
-19.992
-20.193
-20.404
-20.623
-20.847
-21.074
-21.302
-21.529
-21.754
-21.974
-22.19
-22.401
-22.605
-22.802
-22.992
-23.174
-23.348
-23.515
-23.675
-23.828
-23.975
-24.117
-24.256
-24.394
-24.531
-24.67
-24.813
-24.961
-25.115
-25.277
-25.446
-25.623
-25.808
-26.001
-26.2
-26.405
-26.615
-26.826
-27.038
-27.247
-27.451
-27.645
-27.827
-27.993
-28.14
-28.264
-28.361
-28.428
-28.462
-28.459
-28.416
-28.329
-28.194
-28.006
-27.763
-27.46
-27.094
-26.661
-26.159
-25.586
-24.94
-24.22
-23.428
-22.562
-21.624
-20.617
-19.542
-18.403
-17.203
-15.949
-14.646
-13.301
-11.922
-10.516
-9.092
-7.658
-6.222
-4.795
-3.383
-1.996
-0.643
0.666
1.923
3.115
4.232
5.263
6.197
7.024
7.734
8.317
8.767
9.076
9.242
9.26
9.126
8.839
8.395
7.793
7.029
6.103
5.015
3.765
2.356
0.789
-0.925
-2.78
-4.766
-6.878
-9.112
-11.463
-13.921
-16.475
-19.108
-21.802
-24.534
-27.274
-29.977
-32.597
-35.089
-37.407
-39.525
-41.427
-43.094
-44.509
-45.656
-46.522
-47.116
-47.46
-47.566
-47.45
-47.14
-46.681
-46.17
-45.717
-45.423
-45.379
-45.637
-46.216
-47.146
-48.438
-50.071
-52.012
-54.178
-56.463
-58.82
-61.2
-63.495
-65.559
-67.13
-67.893
-67.642
-66.166
-63.241
-58.817
-52.893
-45.557
-37.18
-28.097
-18.403
-8.268
2.213
13.356
25.423
38.778
54.167
71.842
91.418
112.488
134.36
155.696
175.229
191.333
201.766
205.236
201.42
190.175
171.854
147.427
117.953
85.367
52.572
21.558
-6.49
-30.523
-49.901
-64.154
-72.959
-77.087
-78.28
-77.681
-75.972
-73.742
-71.354
-69.409
-68.441
-68.199
-67.862
-66.927
-65.191
-62.635
-59.417
-55.463
-50.718
-45.475
-40.24
-35.414
-31.228
-27.749
-24.921
-22.774
-21.339
-20.546
-20.265
-20.346
-20.671
-21.176
-21.815
-22.507
-23.162
-23.708
-24.091
-24.292
-24.299
-24.098
-23.691
-23.091
-22.326
-21.429
-20.428
-19.344
-18.205
-17.04
-15.886
-14.782
-13.757
-12.832
-12.022
-11.334
-10.773
-10.339
-10.023
-9.808
-9.68
-9.624
-9.628
-9.683
-9.777
-9.893
-10.015
-10.128
-10.218
-10.274
-10.282
-10.23
-10.107
-9.902
-9.609
-9.219
-8.724
-8.115
-7.383
-6.519
-5.515
-4.365
-3.06
-1.596
0.034
1.832
3.801
5.941
8.253
10.735
13.384
16.197
19.168
22.289
25.552
28.948
32.467
36.096
39.823
43.635
47.517
51.455
55.432
59.433
63.439
67.433
71.396
75.31
79.156
82.914
86.565
90.092
93.474
96.695
99.736
102.58
105.212
107.614
109.774
111.678
113.313
114.67
115.739
116.514
116.989
117.16
117.025
116.583
115.835
114.784
113.433
111.788
109.856
107.646
105.167
102.432
99.453
96.244
92.821
89.201
85.4
81.436
77.328
73.095
68.756
64.332
59.842
55.306
50.746
46.18
41.629
37.11
32.644
28.247
23.935
19.725
15.629
11.662
7.836
4.161
0.647
-2.698
-5.865
-8.85
-11.649
-14.257
-16.675
-18.9
-20.935
-22.782
-24.443
-25.923
-27.228
-28.362
-29.334
-30.151
-30.82
-31.352
-31.755
-32.04
-32.217
-32.297
-32.289
-32.205
-32.055
-31.849
-31.595
-31.305
-30.987
-30.648
-30.299
-29.945
-29.595
-29.255
-28.93
-28.625
-28.346
-28.094
-27.874
-27.687
-27.534
-27.417
-27.335
-27.289
-27.278
-27.3
-27.355
-27.438
-27.549
-27.684
-27.838
-28.009
-28.193
-28.385
-28.582
-28.779
-28.973
-29.16
-29.337
-29.498
-29.642
-29.764
-29.862
-29.933
-29.973
-29.98
-29.953
-29.89
-29.791
-29.654
-29.48
-29.268
-29.019
-28.735
-28.416
-28.063
-27.678
-27.264
-26.823
-26.358
-25.872
-25.368
-24.85
-24.322
-23.788
-23.251
-22.715
-22.184
-21.661
-21.15
-20.655
-20.18
-19.727
-19.3
-18.903
-18.538
-18.209
-17.919
-17.668
-17.46
-17.294
-17.172
-17.095
-17.061
-17.072
-17.125
-17.221
-17.356
-17.53
-17.74
-17.982
-18.253
-18.549
-18.866
-19.198
-19.54
-19.888
-20.236
-20.578
-20.91
-21.227
-21.523
-21.793
-22.032
-22.235
-22.395
-22.507
-22.567
-22.57
-22.51
-22.383
-22.186
-21.915
-21.57
-21.148
-20.648
-20.069
-19.41
-18.673
-17.859
-16.97
-16.009
-14.978
-13.882
-12.728
-11.521
-10.271
-8.982
-7.665
-6.327
-4.976
-3.622
-2.274
-0.939
0.374
1.654
2.892
4.076
5.198
6.246
7.209
8.076
8.837
9.482
10.004
10.395
10.651
10.765
10.734
10.557
10.233
9.763
9.143
8.375
7.458
6.395
5.19
3.846
2.365
0.752
-0.985
-2.835
-4.788
-6.835
-8.979
-11.217
-13.54
-15.938
-18.395
-20.892
-23.411
-25.922
-28.376
-30.723
-32.907
-34.877
-36.61
-38.086
-39.286
-40.189
-40.765
-41
-40.906
-40.498
-39.789
-38.798
-37.553
-36.12
-34.621
-33.188
-31.952
-31.021
-30.463
-30.324
-30.631
-31.414
-32.667
-34.352
-36.437
-38.871
-41.627
-44.671
-47.859
-50.939
-53.639
-55.615
-56.431
-55.741
-53.243
-48.828
-42.857
-35.774
-27.92
-19.696
-11.509
-3.669
3.888
12.068
22.691
37.929
57.91
80.534
104.497
128.558
156.154
195.536
247.77
309.259
367.432
397.876
385.965
325.208
220.134
95.74
-23.827
-116.556
-166.058
-175.498
-156.165
-124.337
-96.119
-77.139
-66.091
-57.58
-47.398
-35.742
-25.169
-19.212
-18.845
-22.491
-28.142
-33.493
-37.231
-39.205
-39.286
-37.551
-34.485
-30.573
-26.412
-22.715
-19.814
-17.772
-16.618
-16.241
-16.503
-17.321
-18.539
-19.965
-21.502
-23.07
-24.596
-26.065
-27.429
-28.629
-29.645
-30.458
-31.058
-31.46
-31.677
-31.719
-31.612
-31.373
-31.018
-30.573
-30.058
-29.501
-28.935
-28.385
-27.867
-27.397
-26.98
-26.619
-26.317
-26.063
-25.843
-25.644
-25.451
-25.255
-25.048
-24.819
-24.554
-24.239
-23.859
-23.402
-22.857
-22.215
-21.465
-20.597
-19.605
-18.481
-17.224
-15.827
-14.287
-12.597
-10.751
-8.748
-6.583
-4.255
-1.764
0.892
3.711
6.689
9.822
13.106
16.533
20.097
23.789
27.6
31.519
35.533
39.631
43.798
48.019
52.279
56.562
60.849
65.124
69.37
73.569
77.7
81.747
85.688
89.507
93.184
96.701
100.04
103.183
106.115
108.82
111.284
113.493
115.436
117.101
118.479
119.562
120.344
120.819
120.985
120.839
120.382
119.616
118.544
117.171
115.503
113.548
111.316
108.816
106.06
103.062
99.834
96.392
92.752
88.932
84.948
80.82
76.567
72.208
67.763
63.252
58.694
54.108
49.514
44.93
40.375
35.867
31.423
27.059
22.79
18.631
14.595
10.692
6.935
3.331
-0.111
-3.385
-6.484
-9.406
-12.145
-14.7
-17.069
-19.253
-21.252
-23.068
-24.704
-26.163
-27.452
-28.575
-29.538
-30.35
-31.017
-31.547
-31.949
-32.231
-32.403
-32.474
-32.453
-32.349
-32.173
-31.932
-31.637
-31.294
-30.912
-30.498
-30.058
-29.598
-29.123
-28.638
-28.146
-27.653
-27.16
-26.671
-26.188
-25.714
-25.25
-24.797
-24.357
-23.93
-23.516
-23.116
-22.728
-22.351
-21.986
-21.629
-21.28
-20.938
-20.599
-20.262
-19.925
-19.585
-19.239
-18.885
-18.522
-18.146
-17.757
-17.354
-16.936
-16.504
-16.059
-15.601
-15.133
-14.657
-14.175
-13.689
-13.201
-12.713
-12.228
-11.746
-11.272
-10.806
-10.351
-9.911
-9.486
-9.081
-8.699
-8.341
-8.011
-7.713
-7.447
-7.219
-7.03
-6.884
-6.785
-6.736
-6.741
-6.801
-6.921
-7.101
-7.341
-7.642
-8.003
-8.42
-8.891
-9.411
-9.975
-10.58
-11.222
-11.897
-12.603
-13.336
-14.094
-14.876
-15.678
-16.494
-17.319
-18.144
-18.961
-19.761
-20.534
-21.272
-21.967
-22.612
-23.202
-23.732
-24.197
-24.588
-24.895
-25.101
-25.196
-25.172
-25.027
-24.766
-24.401
-23.949
-23.432
-22.874
-22.292
-21.695
-21.083
-20.439
-19.746
-18.984
-18.147
-17.239
-16.263
-15.22
-14.104
-12.907
-11.601
-10.151
-8.513
-6.633
-4.475
-2.027
0.696
3.644
6.754
9.942
13.143
16.31
19.4
22.376
25.195
27.814
30.175
32.208
33.831
34.944
35.471
35.362
34.609
33.247
31.343
28.991
26.272
23.248
19.972
16.484
12.821
9.023
5.129
1.185
-2.745
-6.57
-10.213
-13.613
-16.743
-19.618
-22.277
-24.772
-27.151
-29.444
-31.67
-33.832
-35.916
-37.884
-39.692
-41.291
-42.651
-43.784
-44.698
-45.405
-45.899
-46.148
-46.127
-45.822
-45.224
-44.322
-43.121
-41.644
-39.955
-38.181
-36.454
-34.908
-33.655
-32.761
-32.269
-32.206
-32.589
-33.415
-34.659
-36.286
-38.237
-40.452
-42.838
-45.235
-47.409
-49.092
-49.979
-49.696
-48.012
-44.833
-40.236
-34.595
-28.257
-21.416
-14.334
-7.257
-0.037
7.806
17.202
29.633
46.175
67.297
93.211
123.567
157.277
192.189
224.948
251.692
268.856
274.831
270.124
253.855
224.935
182.159
122.606
51.433
-20.065
-81.23
-118.996
-130.875
-125.735
-111.625
-98.549
-90.828
-84.42
-77.543
-69.41
-60.472
-54.119
-51.517
-51.729
-53.698
-55.759
-56.917
-56.993
-55.815
-53.379
-49.904
-45.764
-41.465
-37.542
-34.326
-31.962
-30.438
-29.608
-29.552
-30.382
-31.785
-33.558
-35.588
-37.298
-39.838
-44.369
-49.149
-53.618
-54.648
-48.5
-39.29
-29.786
-24.081
-27.8
-36.011
-44.534
-50.529
-49.283
-44.244
-38.91
-34.084
-31.89
-31.127
-30.24
-29.535
-28.817
-28.186
-27.947
-27.884
-27.822
-27.805
-27.84
-27.895
-27.959
-28.028
-28.092
-28.163
-28.265
-28.367
-28.441
-28.48
-28.468
-28.395
-28.253
-28.027
-27.7
-27.26
-26.696
-25.994
-25.143
-24.132
-22.948
-21.582
-20.026
-18.274
-16.32
-14.161
-11.794
-9.218
-6.432
-3.439
-0.242
3.154
6.743
10.516
14.464
18.575
22.835
27.228
31.737
36.345
41.031
45.775
50.554
55.346
60.127
64.873
69.559
74.162
78.656
83.017
87.22
91.243
95.063
98.656
102.003
105.085
107.881
110.377
112.557
114.406
115.914
117.07
117.866
118.295
118.354
118.04
117.352
116.294
114.869
113.084
110.947
108.469
105.662
102.541
99.121
95.421
91.46
87.256
82.833
78.212
73.417
68.47
63.396
58.22
52.966
47.658
42.321
36.98
31.657
26.377
21.16
16.029
11.004
6.104
1.349
-3.246
-7.664
-11.89
-15.913
-19.721
-23.304
-26.654
-29.766
-32.634
-35.257
-37.632
-39.761
-41.645
-43.287
-44.693
-45.868
-46.819
-47.554
-48.082
-48.414
-48.56
-48.531
-48.34
-47.998
-47.519
-46.915
-46.2
-45.386
-44.487
-43.516
-42.484
-41.405
-40.29
-39.152
-38
-36.846
-35.698
-34.567
-33.46
-32.383
-31.344
-30.347
-29.397
-28.498
-27.651
-26.86
-26.124
-25.445
-24.821
-24.253
-23.739
-23.276
-22.862
-22.494
-22.168
-21.881
-21.628
-21.406
-21.211
-21.039
-20.885
-20.747
-20.619
-20.498
-20.382
-20.266
-20.148
-20.026
-19.896
-19.759
-19.611
-19.454
-19.287
-19.11
-18.924
-18.732
-18.533
-18.331
-18.128
-17.926
-17.727
-17.536
-17.354
-17.186
-17.034
-16.902
-16.794
-16.711
-16.657
-16.634
-16.645
-16.69
-16.77
-16.887
-17.04
-17.23
-17.454
-17.713
-18.004
-18.325
-18.672
-19.042
-19.43
-19.832
-20.242
-20.653
-21.061
-21.459
-21.839
-22.196
-22.523
-22.813
-23.059
-23.254
-23.391
-23.464
-23.466
-23.391
-23.233
-22.988
-22.651
-22.22
-21.691
-21.064
-20.337
-19.51
-18.584
-17.56
-16.441
-15.23
-13.931
-12.549
-11.092
-9.566
-7.98
-6.343
-4.665
-2.956
-1.226
0.512
2.249
3.972
5.671
7.333
8.945
10.494
11.967
13.35
14.63
15.793
16.828
17.723
18.471
19.063
19.495
19.762
19.86
19.787
19.541
19.118
18.515
17.73
16.762
15.614
14.29
12.794
11.132
9.313
7.346
5.241
2.999
0.623
-1.878
-4.5
-7.226
-10.033
-12.893
-15.769
-18.618
-21.399
-24.069
-26.578
-28.891
-30.98
-32.825
-34.414
-35.721
-36.719
-37.4
-37.766
-37.835
-37.641
-37.223
-36.653
-36.023
-35.424
-34.944
-34.662
-34.658
-35.026
-35.819
-37.048
-38.725
-40.806
-43.274
-46.211
-49.484
-52.797
-55.866
-58.262
-59.723
-60.344
-59.932
-57.988
-54.53
-49.881
-44.569
-39.697
-35.565
-31.476
-27.322
-23.231
-18.591
-12.514
-3.384
11.363
32.686
59.989
93.066
131.095
172.24
214.269
253.388
284.772
305.267
312.912
305.944
284.234
248.851
201.733
146.942
89.365
33.076
-17.92
-60.131
-91.754
-111.928
-120.907
-120.711
-113.722
-102.315
-89.432
-77.524
-68.028
-61.896
-59.234
-59.279
-61.304
-64.41
-67.317
-69.148
-69.471
-68.077
-65.198
-61.304
-56.756
-52.003
-47.592
-43.83
-40.877
-38.802
-37.499
-36.839
-36.726
-37.02
-37.555
-38.23
-38.949
-39.62
-40.202
-40.644
-40.894
-40.934
-40.751
-40.337
-39.703
-38.867
-37.846
-36.675
-35.386
-34.009
-32.578
-31.126
-29.693
-28.324
-27.052
-25.902
-24.89
-24.023
-23.305
-22.738
-22.313
-22.015
-21.826
-21.732
-21.719
-21.773
-21.881
-22.022
-22.177
-22.324
-22.443
-22.518
-22.533
-22.47
-22.314
-22.05
-21.668
-21.157
-20.508
-19.709
-18.749
-17.618
-16.306
-14.807
-13.113
-11.219
-9.121
-6.816
-4.305
-1.588
1.332
4.45
7.763
11.263
14.942
18.79
22.795
26.944
31.225
35.62
40.114
44.687
49.322
54
58.7
63.402
68.084
72.725
77.304
81.799
86.19
90.454
94.57
98.52
102.282
105.84
109.174
112.268
115.107
117.675
119.961
121.953
123.64
125.014
126.067
126.795
127.194
127.261
126.997
126.404
125.483
124.24
122.681
120.814
118.649
116.195
113.466
110.474
107.234
103.762
100.074
96.19
92.126
87.903
83.539
79.056
74.473
69.811
65.09
60.329
55.551
50.773
46.015
41.296
36.634
32.046
27.547
23.153
18.878
14.734
10.733
6.887
3.203
-0.309
-3.643
-6.793
-9.754
-12.523
-15.098
-17.478
-19.665
-21.659
-23.463
-25.083
-26.523
-27.789
-28.887
-29.826
-30.614
-31.259
-31.77
-32.158
-32.432
-32.603
-32.679
-32.671
-32.589
-32.443
-32.24
-31.99
-31.702
-31.382
-31.039
-30.679
-30.309
-29.936
-29.564
-29.2
-28.847
-28.51
-28.192
-27.895
-27.622
-27.374
-27.152
-26.956
-26.785
-26.639
-26.517
-26.416
-26.335
-26.271
-26.221
-26.183
-26.153
-26.129
-26.107
-26.086
-26.062
-26.033
-25.997
-25.954
-25.9
-25.836
-25.76
-25.671
-25.569
-25.452
-25.321
-25.176
-25.015
-24.841
-24.653
-24.452
-24.239
-24.015
-23.782
-23.542
-23.296
-23.047
-22.796
-22.547
-22.301
-22.062
-21.833
-21.615
-21.413
-21.229
-21.064
-20.922
-20.804
-20.71
-20.644
-20.604
-20.592
-20.608
-20.652
-20.723
-20.822
-20.949
-21.101
-21.279
-21.481
-21.706
-21.951
-22.215
-22.494
-22.788
-23.093
-23.406
-23.724
-24.043
-24.361
-24.674
-24.977
-25.265
-25.533
-25.778
-25.993
-26.174
-26.316
-26.414
-26.464
-26.462
-26.404
-26.286
-26.105
-25.858
-25.542
-25.152
-24.687
-24.145
-23.523
-22.82
-22.035
-21.169
-20.221
-19.193
-18.087
-16.903
-15.644
-14.312
-12.911
-11.445
-9.916
-8.331
-6.694
-5.013
-3.296
-1.55
0.216
1.993
3.772
5.542
7.295
9.02
10.708
12.348
13.932
15.447
16.883
18.227
19.467
20.591
21.589
22.448
23.161
23.719
24.115
24.344
24.404
24.293
24.008
23.547
22.905
22.078
21.066
19.87
18.494
16.944
15.223
13.34
11.308
9.139
6.843
4.428
1.891
-0.768
-3.541
-6.413
-9.363
-12.365
-15.4
-18.444
-21.46
-24.417
-27.273
-29.993
-32.562
-34.968
-37.197
-39.225
-41.006
-42.499
-43.694
-44.599
-45.235
-45.621
-45.757
-45.65
-45.328
-44.841
-44.271
-43.701
-43.197
-42.814
-42.547
-42.439
-42.618
-43.095
-43.763
-44.387
-44.494
-43.697
-41.974
-39.296
-35.625
-31.227
-26.296
-21.309
-17.486
-15.83
-16.678
-20.054
-25.284
-31.109
-36.746
-40.937
-41.329
-35.71
-22.275
0.009
30.488
67.641
110.391
156.796
203.667
247.313
283.447
308.561
320.989
319.902
304.561
275.411
234.197
184.04
129.575
75.244
24.567
-19.488
-54.388
-78.545
-91.48
-94.223
-89.231
-79.284
-67.095
-54.914
-44.58
-37.455
-34.17
-34.531
-37.64
-42.229
-46.931
-50.85
-53.402
-54.233
-53.385
-51.075
-47.702
-43.867
-40.183
-37.003
-34.508
-32.755
-31.668
-31.199
-31.279
-31.775
-32.551
-33.49
-34.522
-35.597
-36.665
-37.665
-38.535
-39.22
-39.69
-39.935
-39.953
-39.749
-39.342
-38.745
-37.987
-37.095
-36.089
-34.996
-33.845
-32.668
-31.508
-30.4
-29.368
-28.433
-27.609
-26.901
-26.313
-25.839
-25.465
-25.179
-24.971
-24.83
-24.747
-24.712
-24.711
-24.727
-24.744
-24.746
-24.721
-24.654
-24.532
-24.341
-24.072
-23.715
-23.262
-22.706
-22.037
-21.245
-20.321
-19.256
-18.043
-16.676
-15.147
-13.451
-11.584
-9.544
-7.33
-4.942
-2.379
0.356
3.26
6.328
9.554
12.93
16.447
20.096
23.865
27.741
31.71
35.757
39.867
44.024
48.211
52.409
56.6
60.767
64.89
68.95
72.929
76.806
80.565
84.186
87.652
90.946
94.052
96.953
99.635
102.084
104.287
106.232
107.909
109.307
110.42
111.241
111.766
111.992
111.916
111.54
110.865
109.895
108.633
107.088
105.265
103.175
100.828
98.237
95.413
92.373
89.131
85.703
82.108
78.362
74.483
70.49
66.402
62.237
58.014
53.753
49.473
45.193
40.931
36.706
32.535
28.435
24.423
20.512
16.718
13.052
9.526
6.152
2.938
-0.107
-2.976
-5.662
-8.162
-10.473
-12.591
-14.517
-16.252
-17.799
-19.159
-20.338
-21.341
-22.174
-22.844
-23.359
-23.726
-23.956
-24.056
-24.039
-23.914
-23.692
-23.386
-23.005
-22.563
-22.069
-21.534
-20.969
-20.384
-19.789
-19.192
-18.602
-18.029
-17.479
-16.96
-16.478
-16.04
-15.65
-15.313
-15.03
-14.805
-14.639
-14.532
-14.483
-14.493
-14.56
-14.682
-14.856
-15.079
-15.348
-15.657
-16.003
-16.378
-16.779
-17.197
-17.628
-18.064
-18.5
-18.93
-19.347
-19.748
-20.125
-20.473
-20.789
-21.067
-21.302
-21.49
-21.629
-21.714
-21.744
-21.718
-21.634
-21.493
-21.294
-21.04
-20.731
-20.37
-19.959
-19.5
-18.998
-18.455
-17.877
-17.269
-16.636
-15.985
-15.322
-14.653
-13.986
-13.327
-12.683
-12.061
-11.466
-10.906
-10.386
-9.913
-9.492
-9.129
-8.829
-8.597
-8.438
-8.354
-8.348
-8.423
-8.578
-8.816
-9.135
-9.535
-10.016
-10.575
-11.212
-11.923
-12.707
-13.559
-14.475
-15.45
-16.479
-17.556
-18.675
-19.827
-21.006
-22.204
-23.414
-24.628
-25.839
-27.037
-28.214
-29.363
-30.475
-31.541
-32.554
-33.506
-34.389
-35.196
-35.924
-36.565
-37.116
-37.573
-37.932
-38.19
-38.344
-38.392
-38.331
-38.159
-37.875
-37.477
-36.967
-36.344
-35.61
-34.768
-33.819
-32.769
-31.62
-30.378
-29.048
-27.635
-26.146
-24.588
-22.969
-21.297
-19.581
-17.829
-16.052
-14.259
-12.459
-10.662
-8.876
-7.111
-5.374
-3.673
-2.019
-0.418
1.12
2.587
3.973
5.268
6.463
7.548
8.514
9.352
10.054
10.611
11.017
11.268
11.361
11.294
11.064
10.671
10.114
9.395
8.514
7.471
6.267
4.903
3.384
1.72
-0.08
-2.005
-4.047
-6.196
-8.451
-10.803
-13.243
-15.767
-18.366
-21.029
-23.734
-26.447
-29.13
-31.746
-34.266
-36.665
-38.926
-41.028
-42.957
-44.703
-46.251
-47.59
-48.71
-49.597
-50.248
-50.673
-50.897
-50.978
-50.99
-50.997
-51.057
-51.186
-51.399
-51.724
-52.187
-52.817
-53.644
-54.663
-55.887
-57.383
-59.116
-60.923
-62.519
-63.425
-63.156
-61.373
-57.862
-52.461
-45.31
-36.981
-28.329
-20.591
-15.103
-12.756
-13.827
-18.316
-25.504
-33.541
-40.327
-43.312
-39.272
-25.692
-1.198
35.146
81.575
133.234
185.847
235.621
281.433
324.994
365.913
399.664
415.007
400.445
347.908
255.127
135.84
9.103
-103.564
-178.074
-207.625
-196.887
-158.374
-114.961
-80.111
-57.653
-46.587
-38.893
-30.539
-22.577
-16.685
-15.386
-18.731
-24.49
-30.435
-34.948
-37.514
-38.159
-37.079
-34.703
-31.499
-28.11
-25.26
-23.265
-22.161
-21.917
-22.356
-23.335
-24.767
-26.453
-28.182
-29.842
-31.345
-32.668
-33.833
-34.808
-35.559
-36.073
-36.338
-36.369
-36.2
-35.846
-35.329
-34.682
-33.926
-33.098
-32.238
-31.376
-30.549
-29.786
-29.101
-28.512
-28.031
-27.664
-27.416
-27.284
-27.252
-27.313
-27.454
-27.663
-27.932
-28.245
-28.588
-28.942
-29.289
-29.613
-29.896
-30.123
-30.28
-30.35
-30.319
-30.175
-29.908
-29.507
-28.959
-28.253
-27.376
-26.318
-25.069
-23.62
-21.964
-20.094
-18.006
-15.695
-13.163
-10.408
-7.432
-4.238
-0.83
2.785
6.601
10.609
14.797
19.153
23.664
28.313
33.084
37.959
42.917
47.939
53.004
58.09
63.174
68.235
73.249
78.194
83.047
87.786
92.388
96.83
101.093
105.155
108.996
112.599
115.946
119.021
121.81
124.299
126.478
128.336
129.864
131.058
131.911
132.42
132.585
132.407
131.886
131.029
129.841
128.33
126.505
124.378
121.96
119.265
116.308
113.105
109.671
106.026
102.186
98.171
93.999
89.691
85.266
80.745
76.146
71.49
66.797
62.085
57.373
52.68
48.022
43.416
38.877
34.42
30.058
25.805
21.672
17.668
13.803
10.084
6.519
3.113
-0.131
-3.209
-6.12
-8.862
-11.436
-13.842
-16.083
-18.16
-20.078
-21.839
-23.45
-24.914
-26.237
-27.426
-28.488
-29.429
-30.256
-30.977
-31.598
-32.129
-32.575
-32.944
-33.242
-33.478
-33.657
-33.785
-33.869
-33.915
-33.927
-33.912
-33.872
-33.813
-33.738
-33.65
-33.552
-33.447
-33.336
-33.222
-33.106
-32.989
-32.874
-32.761
-32.651
-32.544
-32.44
-32.339
-32.242
-32.147
-32.054
-31.961
-31.869
-31.777
-31.683
-31.586
-31.486
-31.381
-31.271
-31.154
-31.03
-30.897
-30.755
-30.602
-30.438
-30.263
-30.077
-29.878
-29.667
-29.444
-29.209
-28.963
-28.704
-28.434
-28.152
-27.859
-27.555
-27.242
-26.921
-26.592
-26.257
-25.918
-25.576
-25.234
-24.892
-24.555
-24.223
-23.898
-23.584
-23.282
-22.996
-22.728
-22.481
-22.257
-22.059
-21.889
-21.75
-21.643
-21.57
-21.532
-21.531
-21.569
-21.645
-21.762
-21.918
-22.116
-22.355
-22.634
-22.952
-23.309
-23.702
-24.129
-24.587
-25.073
-25.584
-26.115
-26.663
-27.223
-27.79
-28.359
-28.925
-29.481
-30.022
-30.541
-31.031
-31.486
-31.9
-32.267
-32.581
-32.836
-33.027
-33.15
-33.2
-33.173
-33.063
-32.868
-32.584
-32.207
-31.736
-31.169
-30.504
-29.742
-28.884
-27.931
-26.884
-25.748
-24.526
-23.22
-21.836
-20.378
-18.852
-17.265
-15.622
-13.932
-12.204
-10.448
-8.673
-6.889
-5.105
-3.333
-1.582
0.138
1.818
3.449
5.02
6.522
7.945
9.278
10.512
11.639
12.647
13.528
14.273
14.876
15.331
15.634
15.783
15.773
15.607
15.283
14.801
14.163
13.366
12.413
11.302
10.036
8.616
7.05
5.347
3.517
1.577
-0.463
-2.59
-4.794
-7.074
-9.426
-11.839
-14.309
-16.825
-19.368
-21.912
-24.417
-26.831
-29.12
-31.261
-33.238
-35.051
-36.69
-38.15
-39.427
-40.508
-41.38
-42.031
-42.433
-42.555
-42.404
-42.01
-41.456
-40.86
-40.287
-39.759
-39.274
-38.832
-38.463
-38.207
-38.066
-37.987
-37.901
-37.829
-37.915
-38.233
-38.651
-38.769
-38.035
-36.128
-33.087
-28.935
-23.52
-16.788
-9.036
-1.341
4.849
8.799
10.656
10.864
9.831
8.158
7.004
8.999
17.54
33.434
54.95
80.565
108.212
139.931
182.038
233.955
291.845
345.665
375.232
368.482
319.444
230.376
120.928
11.843
-76.839
-130.156
-149.063
-141.916
-122.492
-103.919
-90.638
-82.317
-74.636
-63.995
-51.294
-39.113
-30.691
-27.491
-28.482
-31.757
-35.312
-38.076
-39.641
-39.763
-38.455
-35.908
-32.502
-28.869
-25.662
-23.196
-21.581
-20.821
-20.795
-21.405
-22.555
-24.057
-25.702
-27.347
-28.883
-30.264
-31.49
-32.523
-33.319
-33.858
-34.12
-34.113
-33.868
-33.402
-32.737
-31.902
-30.922
-29.833
-28.677
-27.495
-26.327
-25.203
-24.143
-23.164
-22.282
-21.505
-20.842
-20.29
-19.838
-19.478
-19.202
-19.003
-18.873
-18.804
-18.779
-18.786
-18.809
-18.831
-18.843
-18.829
-18.779
-18.679
-18.518
-18.286
-17.974
-17.572
-17.068
-16.45
-15.706
-14.823
-13.792
-12.602
-11.244
-9.709
-7.99
-6.081
-3.98
-1.683
0.813
3.507
6.4
9.488
12.769
16.236
19.883
23.7
27.679
31.806
36.068
40.45
44.936
49.51
54.153
58.847
63.571
68.305
73.027
77.717
82.352
86.909
91.367
95.703
99.896
103.923
107.765
111.4
114.811
117.978
120.884
123.515
125.854
127.889
129.609
131.002
132.061
132.779
133.151
133.175
132.85
132.176
131.155
129.794
128.097
126.072
123.73
121.08
118.136
114.912
111.422
107.684
103.714
99.531
95.155
90.604
85.901
81.065
76.118
71.081
65.977
60.826
55.649
50.47
45.308
40.183
35.116
30.126
25.231
20.447
15.791
11.278
6.921
2.734
-1.274
-5.092
-8.711
-12.125
-15.327
-18.313
-21.079
-23.625
-25.95
-28.054
-29.939
-31.61
-33.07
-34.324
-35.378
-36.241
-36.919
-37.421
-37.757
-37.937
-37.971
-37.872
-37.649
-37.317
-36.885
-36.368
-35.776
-35.122
-34.418
-33.674
-32.902
-32.113
-31.317
-30.524
-29.742
-28.98
-28.245
-27.546
-26.888
-26.275
-25.713
-25.205
-24.754
-24.361
-24.029
-23.756
-23.543
-23.39
-23.295
-23.255
-23.268
-23.33
-23.439
-23.588
-23.773
-23.989
-24.231
-24.492
-24.768
-25.051
-25.337
-25.621
-25.895
-26.156
-26.398
-26.616
-26.806
-26.964
-27.086
-27.171
-27.215
-27.218
-27.178
-27.097
-26.974
-26.812
-26.611
-26.375
-26.105
-25.807
-25.482
-25.135
-24.772
-24.395
-24.012
-23.627
-23.246
-22.875
-22.52
-22.186
-21.879
-21.605
-21.368
-21.174
-21.026
-20.931
-20.891
-20.909
-20.989
-21.133
-21.341
-21.615
-21.953
-22.355
-22.818
-23.338
-23.912
-24.535
-25.201
-25.904
-26.639
-27.396
-28.17
-28.952
-29.735
-30.509
-31.265
-31.996
-32.693
-33.346
-33.947
-34.487
-34.959
-35.353
-35.663
-35.882
-36.002
-36.017
-35.922
-35.713
-35.386
-34.938
-34.368
-33.675
-32.859
-31.924
-30.871
-29.706
-28.432
-27.057
-25.588
-24.034
-22.403
-20.707
-18.955
-17.159
-15.33
-13.481
-11.624
-9.771
-7.936
-6.131
-4.369
-2.665
-1.032
0.515
1.963
3.298
4.506
5.576
6.497
7.258
7.854
8.278
8.525
8.591
8.472
8.169
7.679
7.002
6.137
5.085
3.848
2.431
0.84
-0.916
-2.829
-4.89
-7.092
-9.429
-11.895
-14.477
-17.162
-19.934
-22.774
-25.653
-28.536
-31.377
-34.129
-36.749
-39.197
-41.437
-43.443
-45.192
-46.66
-47.824
-48.672
-49.2
-49.424
-49.362
-49.033
-48.476
-47.745
-46.938
-46.176
-45.548
-45.137
-45
-45.159
-45.673
-46.589
-47.907
-49.611
-51.63
-53.844
-56.275
-58.956
-61.695
-64.268
-66.301
-67.314
-67.246
-66.045
-63.249
-58.563
-52.107
-44.113
-35.451
-27.031
-18.649
-10.267
-2.461
4.867
12.446
21.454
34.333
51.878
71.906
93.337
116.805
146.132
187.059
239.795
296.21
340.715
357.383
338.453
287.898
220.521
151.527
90.091
38.709
-6.688
-48.665
-85.518
-114.581
-132.481
-138.127
-133.811
-122.368
-106.707
-90.022
-74.778
-62.434
-53.924
-49.347
-47.926
-48.951
-51.575
-54.409
-56.445
-57.201
-56.395
-54.256
-51.251
-47.658
-43.879
-40.471
-37.745
-35.859
-34.874
-34.619
-34.93
-35.709
-36.784
-38.002
-39.256
-40.426
-41.446
-42.299
-42.949
-43.384
-43.598
-43.572
-43.309
-42.828
-42.144
-41.292
-40.3
-39.191
-38
-36.76
-35.505
-34.281
-33.12
-32.04
-31.058
-30.181
-29.413
-28.76
-28.218
-27.772
-27.411
-27.119
-26.885
-26.699
-26.548
-26.412
-26.275
-26.118
-25.926
-25.686
-25.387
-25.019
-24.572
-24.037
-23.409
-22.681
-21.845
-20.892
-19.811
-18.589
-17.219
-15.692
-14.002
-12.142
-10.111
-7.908
-5.533
-2.984
-0.259
2.651
5.749
9.032
12.49
16.109
19.865
23.731
27.672
31.652
35.644
39.624
43.583
47.524
51.451
55.373
59.283
63.163
66.998
70.777
74.495
78.153
81.77
85.373
89
92.702
96.506
100.423
104.43
108.475
112.49
116.391
120.115
123.615
126.851
129.789
132.391
134.62
136.423
137.739
138.488
138.578
137.937
136.525
134.343
131.434
127.874
123.763
119.191
114.23
108.943
103.382
97.595
91.628
85.532
79.363
73.198
67.133
61.251
55.617
50.265
45.195
40.383
35.782
31.351
27.058
22.883
18.817
14.859
11.015
7.292
3.702
0.24
-3.112
-6.37
-9.55
-12.651
-15.663
-18.563
-21.319
-23.902
-26.288
-28.457
-30.398
-32.109
-33.591
-34.853
-35.908
-36.767
-37.433
-37.913
-38.209
-38.326
-38.275
-38.067
-37.716
-37.237
-36.645
-35.956
-35.185
-34.343
-33.443
-32.493
-31.501
-30.475
-29.423
-28.355
-27.281
-26.209
-25.148
-24.109
-23.099
-22.128
-21.202
-20.327
-19.508
-18.75
-18.056
-17.429
-16.872
-16.387
-15.974
-15.635
-15.371
-15.181
-15.065
-15.022
-15.051
-15.149
-15.313
-15.541
-15.829
-16.172
-16.565
-17.005
-17.485
-18.001
-18.547
-19.119
-19.711
-20.317
-20.931
-21.548
-22.162
-22.767
-23.357
-23.929
-24.476
-24.996
-25.484
-25.937
-26.353
-26.728
-27.061
-27.349
-27.591
-27.785
-27.929
-28.025
-28.071
-28.069
-28.02
-27.926
-27.788
-27.611
-27.398
-27.151
-26.876
-26.576
-26.256
-25.92
-25.572
-25.219
-24.863
-24.511
-24.167
-23.835
-23.521
-23.228
-22.96
-22.72
-22.512
-22.337
-22.197
-22.095
-22.03
-22.005
-22.02
-22.074
-22.168
-22.299
-22.468
-22.67
-22.904
-23.164
-23.446
-23.745
-24.056
-24.372
-24.687
-24.994
-25.288
-25.561
-25.808
-26.02
-26.192
-26.317
-26.387
-26.397
-26.341
-26.213
-26.008
-25.721
-25.35
-24.892
-24.344
-23.706
-22.977
-22.156
-21.244
-20.243
-19.152
-17.976
-16.717
-15.38
-13.972
-12.498
-10.969
-9.392
-7.778
-6.136
-4.479
-2.817
-1.162
0.475
2.083
3.648
5.159
6.601
7.963
9.232
10.396
11.44
12.353
13.122
13.739
14.195
14.481
14.592
14.522
14.266
13.825
13.198
12.38
11.372
10.171
8.776
7.194
5.428
3.483
1.366
-0.914
-3.344
-5.904
-8.58
-11.363
-14.245
-17.225
-20.295
-23.438
-26.64
-29.881
-33.134
-36.367
-39.536
-42.584
-45.472
-48.167
-50.644
-52.897
-54.914
-56.669
-58.148
-59.324
-60.166
-60.665
-60.801
-60.571
-60.011
-59.166
-58.115
-56.959
-55.758
-54.591
-53.523
-52.56
-51.72
-50.995
-50.313
-49.745
-49.389
-49.151
-48.984
-48.75
-48.137
-47.143
-45.758
-43.514
-40.092
-35.524
-29.805
-23.545
-17.559
-11.675
-5.794
-0.463
4.2
8.582
13.391
20.777
33.234
50.136
69.447
90.763
112.889
138.607
175.35
222.867
277.222
329.196
357.336
348.024
297.779
210.071
107.558
14.069
-56.554
-94.375
-105.481
-103.647
-96.344
-91.103
-88.623
-83.492
-75.009
-63.003
-48.935
-37.37
-30.123
-27.126
-27.862
-30.38
-32.959
-34.989
-35.953
-35.53
-33.821
-31.001
-27.371
-23.506
-20.036
-17.279
-15.382
-14.393
-14.184
-14.649
-15.711
-17.192
-18.885
-20.642
-22.336
-23.9
-25.326
-26.572
-27.593
-28.367
-28.872
-29.113
-29.115
-28.895
-28.468
-27.862
-27.1
-26.215
-25.251
-24.25
-23.253
-22.294
-21.392
-20.564
-19.822
-19.172
-18.618
-18.155
-17.77
-17.451
-17.189
-16.974
-16.797
-16.649
-16.514
-16.377
-16.22
-16.028
-15.787
-15.485
-15.107
-14.644
-14.082
-13.412
-12.629
-11.723
-10.687
-9.51
-8.182
-6.696
-5.044
-3.22
-1.218
0.967
3.339
5.897
8.642
11.573
14.688
17.982
21.451
25.09
28.89
32.844
36.942
41.172
45.524
49.983
54.535
59.165
63.856
68.59
73.351
78.119
82.876
87.602
92.278
96.885
101.404
105.816
110.103
114.245
118.224
122.025
125.63
129.022
132.189
135.115
137.788
140.197
142.332
144.185
145.748
147.016
147.983
148.646
149.004
149.056
148.803
148.247
147.393
146.246
144.814
143.103
141.124
138.886
136.403
133.685
130.747
127.602
124.264
120.749
117.072
113.249
109.297
105.232
101.071
96.831
92.53
88.183
83.809
79.423
75.04
70.678
66.349
62.07
57.854
53.713
49.661
45.71
41.869
38.149
34.559
31.107
27.799
24.642
21.641
18.799
16.12
13.607
11.261
9.084
7.075
5.235
3.563
2.057
0.715
-0.468
-1.493
-2.366
-3.091
-3.673
-4.119
-4.433
-4.621
-4.691
-4.648
-4.5
-4.253
-3.914
-3.49
-2.988
-2.415
-1.777
-1.082
-0.334
0.459
1.291
2.157
3.052
3.968
4.901
5.846
6.796
7.747
8.693
9.629
10.551
11.453
12.333
13.185
14.006
14.792
15.539
16.246
16.908
17.523
18.087
18.6
19.058
19.458
19.8
20.08
20.298
20.451
20.537
20.555
20.503
20.38
20.184
19.916
19.575
19.159
18.671
18.109
17.476
16.771
15.998
15.157
14.251
13.282
12.251
11.162
10.017
8.818
7.568
6.27
4.927
3.541
2.115
0.652
-0.844
-2.371
-3.925
-5.503
-7.102
-8.717
-10.346
-11.985
-13.631
-15.279
-16.927
-18.571
-20.209
-21.839
-23.457
-25.062
-26.652
-28.226
-29.783
-31.32
-32.838
-34.335
-35.811
-37.263
-38.691
-40.094
-41.47
-42.817
-44.133
-45.417
-46.666
-47.878
-49.049
-50.178
-51.262
-52.298
-53.283
-54.214
-55.088
-55.902
-56.653
-57.338
-57.953
-58.496
-58.961
-59.347
-59.649
-59.864
-59.989
-60.02
-59.954
-59.787
-59.518
-59.143
-58.66
-58.068
-57.365
-56.552
-55.629
-54.598
-53.462
-52.223
-50.885
-49.454
-47.936
-46.335
-44.66
-42.916
-41.113
-39.26
-37.366
-35.442
-33.5
-31.549
-29.603
-27.672
-25.771
-23.91
-22.101
-20.358
-18.69
-17.111
-15.635
-14.273
-13.038
-11.944
-11.002
-10.224
-9.619
-9.197
-8.963
-8.923
-9.077
-9.427
-9.973
-10.715
-11.65
-12.777
-14.09
-15.583
-17.248
-19.078
-21.066
-23.201
-25.472
-27.864
-30.363
-32.96
-35.646
-38.421
-41.274
-44.186
-47.139
-50.117
-53.105
-56.086
-59.032
-61.893
-64.618
-67.16
-69.479
-71.555
-73.369
-74.884
-76.065
-76.874
-77.301
-77.376
-77.122
-76.536
-75.608
-74.313
-72.691
-70.874
-69.01
-67.247
-65.7
-64.375
-63.319
-62.669
-62.457
-62.653
-63.052
-63.147
-62.664
-61.675
-60.244
-58.487
-56.563
-54.371
-52.196
-50.996
-51.206
-52.81
-55.598
-58.636
-61.013
-62.375
-61.786
-57.525
-48.401
-33.299
-11.579
15.784
47.766
83.7
122.058
160.747
197.537
229.28
253.278
268.557
274.111
269.158
253.87
228.494
194.276
154.315
111.604
68.413
27.427
-9.357
-40.557
-64.292
-79.888
-88.392
-90.917
-88.925
-84.457
-78.67
-72.49
-67.416
-64.146
-62.581
-62.631
-63.581
-64.362
-64.65
-64.261
-62.829
-60.392
-57.099
-53.049
-48.725
-44.731
-41.334
-38.703
-36.934
-35.936
-35.669
-36.106
-37.097
-38.452
-40.012
-41.625
-43.182
-44.639
-45.937
-47.019
-47.846
-48.38
-48.608
-48.541
-48.193
-47.583
-46.732
-45.668
-44.42
-43.031
-41.549
-40.027
-38.516
-37.054
-35.67
-34.385
-33.215
-32.172
-31.26
-30.476
-29.808
-29.244
-28.777
-28.4
-28.105
-27.883
-27.718
-27.594
-27.496
-27.408
-27.317
-27.211
-27.074
-26.895
-26.662
-26.365
-25.998
-25.55
-25.009
-24.363
-23.599
-22.706
-21.672
-20.485
-19.135
-17.612
-15.908
-14.016
-11.932
-9.652
-7.175
-4.498
-1.624
1.445
4.705
8.15
11.773
15.565
19.515
23.61
27.838
32.182
36.627
41.155
45.749
50.389
55.057
59.73
64.39
69.015
73.583
78.072
82.459
86.724
90.843
94.795
98.559
102.114
105.441
108.522
111.339
113.878
116.123
118.063
119.687
120.986
121.954
122.585
122.876
122.827
122.439
121.714
120.659
119.279
117.584
115.584
113.289
110.715
107.874
104.783
101.458
97.918
94.182
90.268
86.199
81.994
77.676
73.267
68.788
64.261
59.709
55.153
50.613
46.111
41.666
37.295
33.018
28.851
24.807
20.903
17.149
13.556
10.134
6.89
3.83
0.96
-1.717
-4.2
-6.488
-8.581
-10.481
-12.192
-13.717
-15.062
-16.232
-17.235
-18.079
-18.772
-19.323
-19.741
-20.036
-20.219
-20.3
-20.288
-20.195
-20.031
-19.806
-19.53
-19.212
-18.861
-18.486
-18.095
-17.695
-17.293
-16.895
-16.506
-16.132
-15.776
-15.442
-15.133
-14.851
-14.598
-14.375
-14.182
-14.02
-13.889
-13.786
-13.713
-13.666
-13.644
-13.646
-13.67
-13.713
-13.773
-13.847
-13.934
-14.031
-14.137
-14.248
-14.364
-14.482
-14.603
-14.725
-14.846
-14.962
-15.073
-15.175
-15.27
-15.36
-15.44
-15.502
-15.559
-15.62
-15.691
-15.786
-15.894
-15.992
-16.099
-16.234
-16.354
-16.429
-16.433
-16.329
-16.149
-15.961
-15.729
-15.388
-15.11
-15.099
-15.234
-15.527
-16.017
-16.269
-17.455
-20.718
-24.426
-28.086
-28.701
-22.685
-14.007
-5.313
-0.541
-5.102
-14.208
-23.803
-31.104
-31.517
-28.323
-24.851
-21.839
-21.314
-22.094
-22.662
-23.303
-23.82
-24.309
-25.073
-25.906
-26.641
-27.326
-27.967
-28.54
-29.043
-29.484
-29.863
-30.205
-30.541
-30.85
-31.116
-31.338
-31.512
-31.633
-31.7
-31.705
-31.64
-31.504
-31.296
-31.013
-30.656
-30.222
-29.709
-29.119
-28.452
-27.708
-26.89
-26.001
-25.042
-24.019
-22.937
-21.802
-20.623
-19.406
-18.16
-16.893
-15.614
-14.332
-13.056
-11.794
-10.555
-9.349
-8.185
-7.074
-6.025
-5.048
-4.156
-3.359
-2.67
-2.099
-1.654
-1.343
-1.172
-1.149
-1.277
-1.557
-1.989
-2.573
-3.311
-4.208
-5.262
-6.473
-7.833
-9.334
-10.971
-12.739
-14.628
-16.622
-18.705
-20.865
-23.099
-25.417
-27.819
-30.295
-32.829
-35.399
-37.986
-40.575
-43.137
-45.633
-48.017
-50.243
-52.286
-54.143
-55.805
-57.256
-58.465
-59.383
-59.994
-60.3
-60.311
-60.055
-59.548
-58.81
-57.889
-56.839
-55.75
-54.728
-53.859
-53.22
-52.85
-52.738
-52.926
-53.519
-54.491
-55.745
-57.01
-57.758
-57.701
-56.81
-55.054
-52.443
-49.011
-44.786
-40.319
-36.877
-35.352
-36.004
-38.584
-42.271
-46.303
-50.05
-52.278
-50.406
-41.614
-24.292
2.191
36.033
73.499
113.385
155.144
198.316
244.443
288.086
318.948
329.296
310.642
264.183
200.916
127.384
50.126
-26.141
-101.189
-166.758
-209.761
-222.89
-204.147
-159.661
-106.652
-61.384
-32.54
-25.934
-36.925
-53.89
-69.868
-77.93
-76.371
-71.062
-65.314
-61.325
-59.828
-58.051
-54.825
-50.647
-46.117
-42.42
-40.06
-38.736
-38.242
-38.449
-39.226
-40.457
-41.964
-43.537
-45.05
-46.462
-47.749
-48.88
-49.805
-50.473
-50.857
-50.937
-50.718
-50.218
-49.449
-48.431
-47.196
-45.771
-44.193
-42.509
-40.756
-38.979
-37.208
-35.464
-33.769
-32.136
-30.579
-29.105
-27.714
-26.401
-25.159
-23.986
-22.877
-21.829
-20.836
-19.889
-18.975
-18.083
-17.204
-16.33
-15.453
-14.568
-13.669
-12.751
-11.811
-10.846
-9.85
-8.814
-7.727
-6.576
-5.349
-4.034
-2.621
-1.1
0.539
2.301
4.19
6.21
8.369
10.674
13.138
15.77
18.573
21.545
24.678
27.957
31.361
34.863
38.435
42.056
45.709
49.391
53.108
56.867
60.677
64.538
68.433
72.349
76.276
80.206
84.138
88.084
92.069
96.123
100.286
104.581
109.01
113.549
118.143
122.725
127.21
131.532
135.641
139.493
143.051
146.274
149.122
151.542
153.471
154.831
155.533
155.506
154.711
153.143
150.837
147.86
144.304
140.251
135.768
130.915
125.74
120.29
114.609
108.751
102.771
96.744
90.764
84.913
79.255
73.83
68.643
63.679
58.898
54.268
49.765
45.371
41.086
36.911
32.853
28.924
25.133
21.48
17.95
14.529
11.204
7.975
4.855
1.864
-0.969
-3.616
-6.054
-8.266
-10.246
-11.992
-13.509
-14.808
-15.905
-16.813
-17.541
-18.098
-18.49
-18.728
-18.823
-18.791
-18.649
-18.414
-18.104
-17.736
-17.324
-16.882
-16.42
-15.948
-15.471
-14.996
-14.529
-14.077
-13.647
-13.245
-12.879
-12.553
-12.275
-12.047
-11.874
-11.756
-11.694
-11.688
-11.735
-11.833
-11.979
-12.17
-12.403
-12.672
-12.973
-13.302
-13.653
-14.021
-14.4
-14.786
-15.171
-15.551
-15.921
-16.276
-16.612
-16.925
-17.212
-17.471
-17.698
-17.892
-18.049
-18.17
-18.25
-18.29
-18.288
-18.243
-18.157
-18.029
-17.863
-17.66
-17.423
-17.155
-16.86
-16.542
-16.204
-15.851
-15.486
-15.115
-14.741
-14.369
-14.005
-13.653
-13.317
-13.002
-12.712
-12.45
-12.22
-12.024
-11.865
-11.745
-11.666
-11.63
-11.638
-11.693
-11.793
-11.941
-12.136
-12.377
-12.662
-12.99
-13.357
-13.761
-14.198
-14.664
-15.154
-15.665
-16.192
-16.73
-17.274
-17.817
-18.355
-18.881
-19.389
-19.873
-20.327
-20.745
-21.121
-21.451
-21.73
-21.954
-22.117
-22.217
-22.247
-22.206
-22.089
-21.893
-21.614
-21.251
-20.802
-20.267
-19.647
-18.942
-18.154
-17.286
-16.341
-15.322
-14.233
-13.079
-11.865
-10.595
-9.276
-7.916
-6.522
-5.104
-3.669
-2.226
-0.786
0.643
2.051
3.43
4.771
6.065
7.304
8.478
9.576
10.59
11.508
12.318
13.011
13.576
14.005
14.292
14.43
14.415
14.246
13.922
13.445
12.815
12.031
11.089
9.992
8.742
7.345
5.808
4.138
2.341
0.428
-1.587
-3.689
-5.867
-8.121
-10.458
-12.877
-15.367
-17.91
-20.488
-23.084
-25.685
-28.268
-30.793
-33.218
-35.499
-37.614
-39.561
-41.333
-42.909
-44.254
-45.322
-46.091
-46.576
-46.797
-46.761
-46.469
-45.915
-45.109
-44.126
-43.07
-42.042
-41.13
-40.39
-39.819
-39.467
-39.457
-39.801
-40.411
-41.059
-41.282
-40.719
-39.335
-37.101
-34.001
-30.26
-26.016
-21.701
-18.446
-17.213
-18.366
-21.93
-27.234
-33.069
-38.672
-42.837
-43.334
-38.013
-25.101
-3.622
25.737
61.422
102.263
146.314
190.485
231.18
264.263
286.408
296.094
292.702
275.728
245.731
204.446
154.889
101.499
48.523
-0.696
-43.435
-77.385
-101.089
-114.085
-117.237
-112.788
-103.314
-91.316
-78.885
-67.691
-58.974
-53.366
-50.798
-50.55
-51.573
-52.705
-53.161
-52.5
-50.497
-47.229
-42.953
-38.039
-33.004
-28.425
-24.638
-21.794
-19.944
-18.988
-18.822
-19.357
-20.441
-21.886
-23.561
-25.35
-27.146
-28.896
-30.535
-31.993
-33.237
-34.235
-34.969
-35.442
-35.669
-35.664
-35.453
-35.065
-34.525
-33.873
-33.145
-32.379
-31.617
-30.891
-30.239
-29.67
-29.171
-28.727
-28.322
-27.947
-27.626
-27.351
-27.069
-26.8
-26.624
-26.594
-26.767
-27.136
-27.573
-28.036
-28.629
-29.215
-29.361
-28.977
-28.174
-26.889
-25.584
-23.362
-17.604
-8.958
0.228
5.927
0.695
-14.759
-33.012
-46.585
-44.869
-27.532
-4.532
16.456
27.04
26.023
20.865
16.056
14.759
17.808
22.137
26.416
30.717
34.931
39.508
44.53
49.569
54.491
59.347
64.103
68.722
73.199
77.531
81.736
85.861
89.908
93.821
97.572
101.144
104.517
107.677
110.603
113.271
115.662
117.769
119.581
121.086
122.276
123.142
123.677
123.878
123.741
123.266
122.454
121.308
119.833
118.035
115.923
113.507
110.799
107.812
104.562
101.063
97.334
93.394
89.26
84.955
80.498
75.912
71.218
66.438
61.594
56.709
51.804
46.9
42.019
37.18
32.404
27.709
23.114
18.635
14.289
10.09
6.053
2.187
-1.494
-4.984
-8.274
-11.358
-14.232
-16.894
-19.341
-21.575
-23.595
-25.407
-27.012
-28.417
-29.627
-30.651
-31.495
-32.169
-32.683
-33.045
-33.267
-33.358
-33.33
-33.192
-32.956
-32.632
-32.231
-31.763
-31.239
-30.669
-30.062
-29.428
-28.776
-28.114
-27.448
-26.787
-26.135
-25.498
-24.882
-24.288
-23.721
-23.183
-22.676
-22.201
-21.758
-21.348
-20.968
-20.619
-20.299
-20.005
-19.736
-19.49
-19.264
-19.056
-18.864
-18.687
-18.521
-18.366
-18.22
-18.08
-17.946
-17.816
-17.687
-17.559
-17.43
-17.299
-17.166
-17.03
-16.89
-16.747
-16.6
-16.451
-16.298
-16.144
-15.989
-15.834
-15.68
-15.529
-15.382
-15.241
-15.109
-14.987
-14.879
-14.786
-14.711
-14.655
-14.62
-14.608
-14.62
-14.655
-14.715
-14.798
-14.907
-15.04
-15.198
-15.381
-15.589
-15.822
-16.079
-16.361
-16.667
-16.995
-17.344
-17.714
-18.103
-18.512
-18.939
-19.385
-19.847
-20.326
-20.82
-21.327
-21.844
-22.369
-22.898
-23.428
-23.953
-24.47
-24.974
-25.461
-25.93
-26.378
-26.804
-27.206
-27.583
-27.934
-28.258
-28.552
-28.811
-29.031
-29.206
-29.331
-29.403
-29.419
-29.378
-29.276
-29.113
-28.889
-28.603
-28.252
-27.831
-27.327
-26.731
-26.045
-25.275
-24.433
-23.539
-22.607
-21.656
-20.711
-19.787
-18.894
-18.029
-17.17
-16.298
-15.403
-14.486
-13.563
-12.648
-11.735
-10.814
-9.873
-8.881
-7.812
-6.635
-5.293
-3.753
-2.011
-0.09
1.949
4.022
6.078
8.079
9.996
11.814
13.496
15.004
16.31
17.371
18.143
18.568
18.554
18.032
16.985
15.425
13.413
11.041
8.369
5.446
2.319
-0.979
-4.407
-7.925
-11.515
-15.158
-18.82
-22.448
-25.957
-29.271
-32.348
-35.169
-37.74
-40.077
-42.178
-44.026
-45.613
-46.93
-47.964
-48.706
-49.131
-49.209
-48.923
-48.297
-47.379
-46.225
-44.893
-43.437
-41.917
-40.429
-39.085
-37.996
-37.272
-36.996
-37.237
-38.046
-39.451
-41.475
-44.126
-47.351
-51.067
-55.168
-59.515
-63.964
-68.328
-72.304
-75.56
-77.744
-78.473
-77.495
-74.616
-69.725
-63.001
-54.703
-45.055
-34.453
-23.228
-11.413
0.845
13.871
28.919
47.055
69.19
95.188
122.913
150.452
177.77
207.487
242.94
284.13
324.28
350.191
350.318
318.538
257.635
179.642
94.507
12.855
-55.288
-106.088
-132.794
-135.625
-123.34
-102.391
-82.503
-68.215
-56.132
-45.453
-35.002
-24.932
-18.724
-17.189
-19.24
-23.678
-28.335
-31.882
-34.194
-35.086
-34.566
-32.977
-30.673
-28.168
-26.111
-24.833
-24.386
-24.749
-25.778
-27.326
-29.278
-31.45
-33.631
-35.672
-37.492
-39.062
-40.384
-41.449
-42.237
-42.733
-42.938
-42.876
-42.569
-42.04
-41.314
-40.414
-39.374
-38.236
-37.043
-35.836
-34.65
-33.501
-32.407
-31.38
-30.43
-29.564
-28.782
-28.077
-27.443
-26.876
-26.369
-25.916
-25.511
-25.141
-24.794
-24.455
-24.111
-23.752
-23.365
-22.939
-22.464
-21.93
-21.326
-20.645
-19.879
-19.017
-18.048
-16.963
-15.749
-14.398
-12.9
-11.246
-9.429
-7.44
-5.275
-2.929
-0.398
2.32
5.226
8.322
11.605
15.074
18.723
22.548
26.54
30.691
34.989
39.422
43.975
48.634
53.381
58.199
63.069
67.972
72.888
77.796
82.676
87.504
92.26
96.921
101.466
105.872
110.118
114.183
118.047
121.689
125.091
128.234
131.102
133.678
135.949
137.9
139.521
140.8
141.731
142.307
142.523
142.379
141.873
141.009
139.791
138.224
136.318
134.081
131.526
128.666
125.515
122.09
118.408
114.487
110.347
106.008
101.491
96.818
92.01
87.09
82.081
77.005
71.886
66.746
61.608
56.495
51.428
46.428
41.516
36.71
32.03
27.49
23.108
18.896
14.867
11.03
7.396
3.97
0.757
-2.237
-5.013
-7.568
-9.905
-12.025
-13.933
-15.633
-17.132
-18.436
-19.554
-20.493
-21.264
-21.876
-22.342
-22.671
-22.878
-22.973
-22.97
-22.882
-22.722
-22.503
-22.239
-21.941
-21.621
-21.292
-20.965
-20.65
-20.355
-20.091
-19.863
-19.679
-19.544
-19.462
-19.436
-19.467
-19.557
-19.707
-19.914
-20.18
-20.501
-20.874
-21.297
-21.766
-22.276
-22.823
-23.401
-24
-24.613
-25.238
-25.874
-26.518
-27.165
-27.802
-28.423
-29.032
-29.624
-30.173
-30.64
-30.987
-31.197
-31.295
-31.299
-31.189
-30.97
-30.715
-30.545
-30.576
-30.853
-31.308
-31.86
-32.567
-33.365
-33.874
-33.777
-33.005
-31.641
-30.126
-27.666
-21.886
-11.827
1.031
10.783
8.776
-8.586
-36.989
-63.997
-75.241
-64.594
-37.059
-6.562
13.415
17.391
8.426
-4.544
-14.514
-19.306
-19.969
-19.51
-19.456
-19.634
-19.776
-19.592
-19.194
-18.963
-18.993
-19.233
-19.689
-20.362
-21.222
-22.212
-23.242
-24.244
-25.207
-26.154
-27.085
-27.987
-28.85
-29.666
-30.432
-31.149
-31.808
-32.396
-32.903
-33.321
-33.644
-33.867
-33.984
-33.992
-33.885
-33.662
-33.321
-32.861
-32.282
-31.587
-30.776
-29.852
-28.819
-27.681
-26.442
-25.11
-23.69
-22.19
-20.62
-18.988
-17.307
-15.587
-13.84
-12.078
-10.314
-8.561
-6.832
-5.139
-3.495
-1.913
-0.405
1.015
2.335
3.544
4.631
5.584
6.391
7.043
7.532
7.85
7.993
7.955
7.731
7.322
6.727
5.952
4.996
3.861
2.548
1.056
-0.608
-2.436
-4.42
-6.55
-8.816
-11.205
-13.694
-16.264
-18.9
-21.593
-24.347
-27.156
-30.006
-32.882
-35.768
-38.639
-41.469
-44.221
-46.84
-49.283
-51.533
-53.565
-55.355
-56.889
-58.139
-59.08
-59.719
-60.032
-59.968
-59.54
-58.827
-57.926
-56.958
-56.01
-55.075
-54.191
-53.506
-52.983
-52.29
-51.336
-50.245
-48.928
-47.778
-46.221
-41.949
-35.285
-28.168
-23.692
-28.369
-42.087
-57.949
-68.85
-64.823
-44.94
-19.497
2.767
13.449
10.919
3.74
-2.574
-6.098
-5.006
-2.937
-1.204
5.359
16.8
37.34
73.491
121.427
181.32
245.928
297.72
330.04
334.769
309.041
264.584
206.353
139.766
74.903
12.376
-43.354
-84.963
-114.926
-133.122
-140.664
-143.079
-139.196
-128.757
-113.908
-95.552
-77.624
-63.279
-53.114
-47.364
-45.117
-45.31
-47.222
-49.633
-51.45
-52.106
-51.359
-49.423
-46.717
-43.533
-40.231
-37.291
-35.007
-33.519
-32.833
-32.777
-33.181
-33.911
-34.803
-35.695
-36.47
-37.049
-37.394
-37.509
-37.394
-37.044
-36.466
-35.668
-34.671
-33.506
-32.203
-30.794
-29.31
-27.788
-26.27
-24.797
-23.408
-22.132
-20.988
-19.988
-19.139
-18.445
-17.905
-17.517
-17.269
-17.149
-17.146
-17.248
-17.446
-17.726
-18.071
-18.464
-18.885
-19.315
-19.739
-20.14
-20.501
-20.806
-21.039
-21.185
-21.233
-21.168
-20.978
-20.648
-20.163
-19.512
-18.683
-17.665
-16.448
-15.025
-13.388
-11.533
-9.458
-7.16
-4.639
-1.898
1.063
4.237
7.619
11.202
14.976
18.932
23.055
27.333
31.748
36.284
40.92
45.638
50.416
55.23
60.059
64.879
69.666
74.396
79.046
83.591
88.009
92.275
96.368
100.264
103.943
107.385
110.57
113.482
116.103
118.42
120.42
122.09
123.421
124.405
125.036
125.308
125.219
124.768
123.956
122.787
121.266
119.401
117.202
114.68
111.847
108.72
105.314
101.646
97.734
93.599
89.26
84.738
80.056
75.235
70.298
65.268
60.168
55.02
49.848
44.673
39.517
34.401
29.346
24.37
19.492
14.731
10.104
5.625
1.309
-2.83
-6.782
-10.537
-14.087
-17.425
-20.546
-23.448
-26.128
-28.586
-30.823
-32.84
-34.642
-36.232
-37.617
-38.801
-39.794
-40.602
-41.236
-41.704
-42.016
-42.183
-42.216
-42.125
-41.921
-41.615
-41.219
-40.742
-40.197
-39.593
-38.941
-38.251
-37.533
-36.795
-36.045
-35.29
-34.538
-33.793
-33.06
-32.345
-31.649
-30.977
-30.33
-29.71
-29.118
-28.554
-28.018
-27.509
-27.027
-26.57
-26.135
-25.721
-25.325
-24.945
-24.579
-24.224
-23.878
-23.538
-23.203
-22.869
-22.535
-22.198
-21.857
-21.51
-21.157
-20.796
-20.428
-20.052
-19.669
-19.281
-18.888
-18.493
-18.096
-17.701
-17.309
-16.923
-16.545
-16.179
-15.827
-15.494
-15.181
-14.893
-14.632
-14.401
-14.204
-14.042
-13.917
-13.831
-13.785
-13.781
-13.819
-13.9
-14.022
-14.186
-14.39
-14.633
-14.911
-15.223
-15.564
-15.93
-16.317
-16.719
-17.131
-17.548
-17.964
-18.374
-18.772
-19.151
-19.507
-19.832
-20.12
-20.366
-20.563
-20.706
-20.788
-20.804
-20.751
-20.624
-20.42
-20.136
-19.771
-19.322
-18.79
-18.173
-17.472
-16.689
-15.826
-14.886
-13.872
-12.79
-11.648
-10.451
-9.208
-7.928
-6.618
-5.289
-3.95
-2.612
-1.282
0.027
1.305
2.541
3.724
4.842
5.884
6.836
7.687
8.425
9.04
9.523
9.865
10.061
10.104
9.99
9.717
9.282
8.687
7.926
6.997
5.899
4.632
3.2
1.609
-0.135
-2.026
-4.053
-6.206
-8.471
-10.838
-13.306
-15.877
-18.54
-21.286
-24.097
-26.945
-29.804
-32.643
-35.42
-38.096
-40.631
-42.983
-45.137
-47.078
-48.792
-50.264
-51.465
-52.366
-52.966
-53.27
-53.281
-53.032
-52.565
-51.934
-51.243
-50.561
-49.944
-49.475
-49.216
-49.232
-49.582
-50.263
-51.237
-52.507
-54.107
-56.001
-58.048
-59.904
-61.16
-61.553
-61.009
-59.547
-56.977
-53.105
-48.096
-42.549
-37.397
-33.388
-30.474
-28.118
-26.178
-24.421
-22.143
-18.265
-10.564
3.355
24.067
51.475
84.517
119.923
156.353
193.178
229.526
267.309
302.788
326.891
330.977
304.971
249.022
174.696
94.112
20.464
-39.74
-89.372
-131.038
-164.847
-188.202
-194.939
-179.046
-143.982
-100.361
-59.844
-36.348
-32.564
-39.715
-50.376
-55.406
-52.097
-46.685
-42.12
-40.228
-41.425
-42.337
-41.655
-39.95
-37.469
-35.125
-33.646
-32.931
-32.947
-33.752
-35.13
-36.837
-38.725
-40.602
-42.3
-43.789
-45.032
-45.965
-46.597
-46.934
-46.967
-46.717
-46.198
-45.421
-44.413
-43.214
-41.858
-40.39
-38.86
-37.314
-35.797
-34.34
-32.96
-31.673
-30.485
-29.402
-28.428
-27.561
-26.796
-26.13
-25.558
-25.076
-24.677
-24.354
-24.095
-23.889
-23.723
-23.583
-23.46
-23.345
-23.226
-23.095
-22.94
-22.752
-22.521
-22.237
-21.886
-21.454
-20.929
-20.295
-19.54
-18.651
-17.617
-16.425
-15.067
-13.534
-11.82
-9.919
-7.826
-5.538
-3.051
-0.364
2.523
5.607
8.888
12.36
16.018
19.855
23.861
28.027
32.338
36.784
41.347
46.012
50.761
55.574
60.431
65.311
70.189
75.044
79.851
84.584
89.22
93.733
98.1
102.297
106.3
110.088
113.641
116.939
119.965
122.702
125.135
127.251
129.037
130.485
131.585
132.331
132.718
132.743
132.406
131.705
130.646
129.232
127.469
125.367
122.936
120.188
117.138
113.801
110.195
106.339
102.253
97.96
93.483
88.844
84.068
79.179
74.202
69.162
64.082
58.987
53.898
48.838
43.829
38.891
34.042
29.303
24.69
20.219
15.905
11.763
7.804
4.04
0.482
-2.863
-5.988
-8.886
-11.554
-13.988
-16.188
-18.153
-19.886
-21.39
-22.669
-23.731
-24.582
-25.231
-25.689
-25.965
-26.071
-26.019
-25.821
-25.489
-25.036
-24.474
-23.816
-23.073
-22.259
-21.386
-20.465
-19.508
-18.527
-17.531
-16.533
-15.542
-14.567
-13.619
-12.707
-11.839
-11.023
-10.266
-9.577
-8.96
-8.42
-7.963
-7.592
-7.309
-7.116
-7.013
-7.002
-7.08
-7.247
-7.501
-7.84
-8.261
-8.76
-9.335
-9.981
-10.694
-11.471
-12.306
-13.196
-14.135
-15.121
-16.147
-17.21
-18.305
-19.427
-20.571
-21.732
-22.905
-24.086
-25.269
-26.449
-27.622
-28.784
-29.931
-31.058
-32.163
-33.243
-34.295
-35.317
-36.307
-37.264
-38.186
-39.073
-39.925
-40.742
-41.524
-42.271
-42.984
-43.665
-44.312
-44.928
-45.511
-46.064
-46.585
-47.076
-47.537
-47.968
-48.369
-48.741
-49.085
-49.4
-49.686
-49.943
-50.172
-50.37
-50.538
-50.675
-50.78
-50.853
-50.891
-50.895
-50.862
-50.791
-50.679
-50.524
-50.324
-50.074
-49.772
-49.415
-49
-48.524
-47.985
-47.381
-46.711
-45.974
-45.168
-44.292
-43.347
-42.331
-41.246
-40.092
-38.871
-37.584
-36.234
-34.826
-33.363
-31.85
-30.292
-28.695
-27.063
-25.404
-23.724
-22.03
-20.329
-18.631
-16.944
-15.28
-13.652
-12.069
-10.544
-9.089
-7.714
-6.432
-5.251
-4.18
-3.225
-2.394
-1.695
-1.136
-0.725
-0.468
-0.371
-0.441
-0.685
-1.106
-1.707
-2.489
-3.449
-4.587
-5.903
-7.398
-9.076
-10.933
-12.963
-15.158
-17.505
-19.985
-22.577
-25.247
-27.953
-30.66
-33.329
-35.924
-38.417
-40.769
-42.953
-44.942
-46.705
-48.224
-49.493
-50.507
-51.276
-51.832
-52.203
-52.44
-52.622
-52.811
-53.091
-53.54
-54.214
-55.18
-56.479
-58.135
-60.166
-62.56
-65.277
-68.259
-71.424
-74.668
-77.899
-80.968
-83.675
-85.805
-87.083
-87.274
-86.15
-83.401
-78.862
-72.49
-64.367
-54.862
-44.385
-33.188
-21.659
-10.214
1.208
12.824
25.206
39.679
57.244
78.452
103.92
133.581
166.391
201.073
235.17
264.679
286.124
296.365
293.647
279.137
254.176
218.914
171.361
108.705
32.608
-48.336
-118.59
-162.616
-173.904
-156.901
-125.814
-95.738
-74.48
-62.612
-55.193
-47.682
-39.318
-31.607
-26.752
-25.258
-25.899
-26.937
-27.035
-25.858
-23.53
-20.273
-16.415
-12.294
-8.362
-5.187
-3.05
-1.973
-1.887
-2.6
-3.957
-5.828
-8.013
-10.295
-12.507
-14.541
-16.337
-17.878
-19.143
-20.107
-20.761
-21.1
-21.14
-20.908
-20.432
-19.744
-18.873
-17.855
-16.735
-15.558
-14.372
-13.214
-12.103
-11.054
-10.076
-9.171
-8.344
-7.591
-6.902
-6.266
-5.676
-5.123
-4.601
-4.104
-3.618
-3.132
-2.632
-2.106
-1.545
-0.942
-0.287
0.426
1.205
2.055
2.979
3.983
5.074
6.259
7.546
8.943
10.456
12.09
13.853
15.748
17.78
19.951
22.261
24.713
27.305
30.039
32.912
35.924
39.072
42.352
45.759
49.288
52.931
56.681
60.528
64.461
68.469
72.539
76.658
80.813
84.988
89.169
93.34
97.483
101.583
105.621
109.58
113.442
117.19
120.805
124.273
127.575
130.696
133.623
136.34
138.835
141.096
143.11
144.867
146.357
147.573
148.507
149.153
149.508
149.568
149.333
148.804
147.982
146.871
145.475
143.801
141.856
139.649
137.19
134.491
131.565
128.425
125.086
121.565
117.878
114.044
110.079
106.002
101.832
97.586
93.284
88.943
84.583
80.222
75.877
71.566
67.307
63.115
59.006
54.995
51.094
47.317
43.674
40.175
36.83
33.647
30.632
27.792
25.131
22.653
20.36
18.254
16.334
14.598
13.045
11.671
10.47
9.437
8.567
7.852
7.284
6.856
6.56
6.386
6.325
6.368
6.506
6.728
7.025
7.387
7.806
8.273
8.78
9.319
9.883
10.465
11.059
11.659
12.26
12.857
13.445
14.02
14.579
15.119
15.637
16.133
16.607
17.057
17.485
17.892
18.279
18.649
19.003
19.345
19.677
20.002
20.324
20.647
20.973
21.306
21.65
22.008
22.383
22.776
23.191
23.627
24.087
24.57
25.077
25.608
26.162
26.739
27.337
27.956
28.595
29.25
29.919
30.6
31.289
31.982
32.675
33.364
34.043
34.708
35.353
35.974
36.565
37.12
37.633
38.1
38.515
38.871
39.165
39.393
39.549
39.631
39.636
39.563
39.41
39.176
38.862
38.467
37.994
37.443
36.816
36.117
35.349
34.515
33.621
32.671
31.672
30.629
29.55
28.441
27.31
26.166
25.017
23.871
22.739
21.628
20.55
19.512
18.526
17.6
16.743
15.964
15.271
14.67
14.17
13.775
13.491
13.324
13.276
13.352
13.554
13.884
14.342
14.927
15.64
16.477
17.436
18.513
19.702
20.999
22.398
23.891
25.471
27.129
28.856
30.641
32.474
34.343
36.235
38.139
40.041
41.929
43.79
45.611
47.381
49.087
50.718
52.263
53.709
55.043
56.255
57.331
58.262
59.037
59.648
60.088
60.351
60.434
60.336
60.058
59.598
58.957
58.134
57.128
55.944
54.584
53.054
51.363
49.518
47.528
45.406
43.164
40.81
38.354
35.792
33.125
30.361
27.512
24.597
21.641
18.663
15.688
12.754
9.889
7.128
4.51
2.053
-0.219
-2.282
-4.117
-5.686
-6.951
-7.907
-8.558
-8.934
-9.08
-9.023
-8.797
-8.451
-8.039
-7.658
-7.41
-7.387
-7.69
-8.35
-9.394
-10.942
-12.99
-15.419
-18.043
-20.404
-22.061
-22.93
-22.893
-21.817
-19.972
-17.535
-14.761
-12.639
-11.972
-12.933
-15.725
-19.931
-24.257
-27.902
-29.939
-28.352
-21.389
-7.687
14.075
43.694
79.636
120.823
165.724
211.508
255.091
292.79
320.876
337.279
341.126
331.596
308.609
273.352
228.122
176.777
123.51
71.747
24.494
-15.669
-46.661
-67.259
-77.61
-79.339
-74.491
-65.209
-53.767
-41.957
-31.424
-23.408
-18.211
-15.479
-14.634
-14.834
-15.126
-14.951
-13.842
-11.567
-8.321
-4.399
-0.155
3.938
7.409
9.982
11.49
11.891
11.302
9.837
7.623
4.83
1.634
-1.815
-5.395
-8.993
-12.539
-15.973
-19.237
-22.295
-25.12
-27.694
-30.013
-32.094
-33.954
-35.616
-37.105
-38.444
-39.661
-40.792
-41.869
-42.93
-44.003
-45.102
-46.237
-47.412
-48.631
-49.889
-51.18
-52.485
-53.791
-55.084
-56.353
-57.591
-58.784
-59.919
-60.981
-61.955
-62.83
-63.598
-64.251
-64.783
-65.191
-65.471
-65.623
-65.649
-65.548
-65.318
-64.955
-64.452
-63.804
-63.007
-62.059
-60.958
-59.702
-58.291
-56.728
-55.019
-53.167
-51.174
-49.041
-46.761
-44.331
-41.762
-39.064
-36.256
-33.365
-30.414
-27.428
-24.44
-21.475
-18.548
-15.668
-12.821
-9.996
-7.191
-4.416
-1.692
0.957
3.528
6.024
8.448
10.821
13.161
15.488
17.85
20.274
22.753
25.263
27.736
30.088
32.266
34.227
35.945
37.403
38.562
39.385
39.843
39.89
39.48
38.555
37.026
34.826
31.94
28.38
24.212
19.535
14.413
8.902
3.054
-3.093
-9.493
-16.096
-22.873
-29.786
-36.785
-43.802
-50.742
-57.518
-64.087
-70.429
-76.559
-82.523
-88.342
-94.029
-99.606
-105.078
-110.447
-115.712
-120.848
-125.829
-130.64
-135.279
-139.761
-144.101
-148.294
-152.327
-156.173
-159.801
-163.183
-166.293
-169.1
-171.571
-173.685
-175.436
-176.832
-177.895
-178.648
-179.105
-179.281
-179.196
-178.868
-178.307
-177.514
-176.474
-175.17
-173.599
-171.77
-169.706
-167.43
-164.939
-162.227
-159.281
-156.073
-152.583
-148.781
-144.617
-140.061
-135.116
-129.812
-124.221
-118.432
-112.506
-106.488
