Name,Aleksandre Beruashvili
Date of Birth,"Dec 20, 1998"
Recorded Date,2024-06-03 13:10:29 +0400
Classification,Sinus Rhythm
Symptoms,
Software Version,1.90
Device,"Watch7,2"
Sample Rate,512 hertz


Lead,Lead I
Unit,µV

82.994
196.103
276.869
331.617
367.105
385.161
385.761
368.461
335.436
292.336
246.143
202.103
162.923
129.965
103.246
81.83
64.697
50.091
35.63
19.77
1.784
-18.157
-39.307
-60.888
-81.628
-102.16
-123.001
-141.408
-156.511
-164.254
-160.099
-149.85
-137.486
-128.88
-131.947
-140.521
-149.381
-155.05
-151.462
-143.341
-135.486
-129.048
-126.892
-127.475
-128.734
-131.055
-134.15
-138.06
-143.065
-148.738
-154.67
-160.777
-166.903
-172.768
-178.164
-182.922
-186.886
-190.077
-192.558
-194.25
-195.169
-195.462
-195.261
-194.766
-194.15
-193.283
-191.996
-190.373
-188.273
-185.18
-180.904
-175.486
-168.897
-162.019
-154.223
-141.934
-123.978
-102.968
-86.776
-89.518
-119.12
-167.22
-212.911
-229.755
-199.695
-132.638
-58.418
-6.518
1.233
-29.939
-73.846
-110.259
-124.686
-117.464
-103.047
-89.592
-81.26
-78.854
-77.8
-76.495
-75.589
-75.042
-75.432
-76.917
-78.915
-81.173
-83.637
-86.086
-88.336
-90.349
-92.148
-93.747
-95.18
-96.401
-97.275
-97.741
-97.783
-97.371
-96.482
-95.087
-93.201
-90.985
-88.712
-86.636
-84.961
-83.782
-83.158
-83.242
-84.152
-85.899
-88.417
-91.596
-95.438
-100.162
-105.96
-112.754
-120.317
-128.389
-136.459
-143.64
-148.743
-150.308
-148.468
-145.374
-142.67
-140.123
-132.447
-112.009
-75.539
-26.328
21.933
53.136
57.853
33.292
-9.632
-51.792
-74.142
-54.35
23.111
159.562
348.446
571.638
803.581
1026.311
1222.854
1375.666
1470.692
1490.086
1422.625
1273.744
1065.949
836.018
621.949
449.775
324.654
234.981
163.45
96.911
33.355
-20.223
-54.746
-66.137
-57.25
-36.018
-12.262
7.125
19.356
24.068
22.343
15.513
4.713
-8.367
-21.369
-31.976
-38.907
-41.999
-41.842
-39.501
-35.931
-31.955
-28.567
-26.731
-26.98
-29.453
-33.979
-40.152
-47.613
-56.082
-65.251
-74.8
-84.468
-94.013
-103.192
-111.796
-119.659
-126.651
-132.695
-137.751
-141.793
-144.819
-146.885
-148.072
-148.467
-148.153
-147.19
-145.636
-143.567
-141.077
-138.268
-135.25
-132.094
-128.847
-125.544
-122.205
-118.842
-115.453
-112.014
-108.485
-104.84
-101.058
-97.126
-93.038
-88.775
-84.316
-79.645
-74.745
-69.608
-64.226
-58.584
-52.675
-46.496
-40.052
-33.362
-26.438
-19.276
-11.895
-4.342
3.346
11.122
18.967
26.912
34.945
42.991
51.062
59.242
67.588
76.169
84.966
93.807
102.613
111.504
120.299
128.413
135.685
142.253
148.015
153.518
157.691
157.057
152.232
146.398
144.655
156.772
182.413
211.669
234.763
237.809
219.54
193.158
168.896
157.689
161.756
171.258
180.061
184.1
182.024
177.857
173.511
168.858
164.073
158.588
152.261
145.667
139.008
132.222
125.354
118.464
111.563
104.659
97.736
90.731
83.647
76.555
69.5
62.503
55.594
48.793
42.132
35.643
29.343
23.242
17.35
11.679
6.247
1.067
-3.866
-8.539
-12.91
-16.955
-20.647
-23.976
-26.981
-29.691
-32.072
-34.169
-36.119
-37.996
-39.873
-41.795
-43.654
-45.347
-46.988
-48.41
-49.013
-48.709
-47.775
-46.097
-44.156
-41.216
-34.114
-23.228
-11.837
-5.04
-12.019
-34.396
-63.819
-88.284
-93.261
-72.908
-35.463
3.21
28.505
32.366
17.086
-4.372
-22.283
-31.249
-28.858
-21.713
-14.294
-7.783
-4.502
-2.664
-0.736
0.633
1.85
2.842
3.097
2.819
2.491
2.365
2.345
2.505
2.847
2.738
3.805
7.593
11.798
15.756
15.319
5.501
-8.169
-22.008
-30.54
-26.237
-15.728
-4.639
3.179
1.362
-5.515
-12.814
-19.49
-22.705
-24.08
-25.697
-27.142
-28.667
-30.113
-31.03
-31.676
-32.256
-32.679
-32.924
-32.999
-32.869
-32.513
-31.944
-31.135
-30.061
-28.736
-27.127
-25.221
-23.07
-20.638
-17.82
-14.547
-10.74
-6.399
-1.669
3.398
8.932
14.757
20.325
25.506
30.422
34.969
39.687
43.459
43.003
39.061
34.546
34.403
47.856
74.099
103.864
127.839
132.823
118.239
96.448
76.978
70.218
77.736
90.233
102.092
109.391
111.012
110.718
110.134
109.102
107.755
105.545
102.33
98.62
94.655
90.442
86.114
81.825
77.58
73.337
69.136
65.035
60.868
56.479
52.168
48.015
44.008
40.814
36.861
30.566
24.166
18.249
16.781
24.657
36.31
47.775
53.348
45.246
29.768
12.519
-2.677
-9.745
-13.258
-17.17
-21.725
-28.638
-35.136
-38.961
-40.14
-37.733
-32.207
-25.35
-18.906
-15.356
-16.687
-22.959
-34.348
-50.772
-70.426
-90.225
-105.36
-109.78
-98.929
-70.107
-20.426
51.864
146.493
261.713
392.702
532.528
675.158
814.404
942.447
1052.251
1137.848
1193.508
1216.242
1205.35
1159.823
1082.899
983.338
866.668
737.502
599.263
449.309
295.82
156.272
45.163
-21.772
-44.348
-39.058
-20.856
-5.478
-0.184
-0.732
-4.576
-9.298
-14.724
-24.446
-38.519
-55.263
-72.445
-86.103
-96.481
-105.276
-110.365
-111.934
-106.63
-90.167
-69.689
-50.319
-38.5
-42.462
-55.097
-70.153
-83.312
-87.552
-87.43
-87.557
-88.763
-93.873
-100.97
-107.622
-114.008
-119.563
-124.228
-128.334
-131.521
-133.527
-134.425
-134.258
-133.056
-130.925
-127.975
-124.299
-120.018
-115.254
-110.075
-104.571
-98.868
-93.079
-87.292
-81.568
-75.939
-70.422
-65.037
-59.775
-54.61
-49.527
-44.516
-39.572
-34.7
-29.878
-25.062
-20.256
-15.467
-10.617
-5.647
-0.509
4.86
10.423
16.094
21.924
27.998
34.073
39.864
45.538
51.075
56.42
62.168
66.696
68.423
69.587
70.857
76.314
90.855
108.991
127.051
139.613
139.235
132.459
124.845
120.272
125.093
134.805
144.832
154.07
159.636
163.118
166.531
169.141
170.876
171.739
171.368
170.051
168.561
165.438
159.717
153.78
148.006
146.528
153.853
165.386
180.201
192.13
190.925
178.148
150.667
111.742
73.759
42.402
29.362
39.633
67.377
103.656
130.748
136.978
118.576
80.801
39.799
6.797
-11.13
-14.264
-11.909
-9.825
-11.431
-17.623
-25.026
-32.142
-39.012
-45.489
-52.148
-59.083
-65.736
-71.901
-77.571
-82.69
-87.267
-91.335
-94.912
-98.052
-100.844
-103.323
-105.465
-107.272
-108.754
-109.922
-110.791
-111.375
-111.678
-111.717
-111.514
-111.091
-110.466
-109.661
-108.694
-107.584
-106.351
-105.015
-103.593
-102.104
-100.565
-98.992
-97.4
-95.804
-94.217
-92.651
-91.117
-89.624
-88.182
-86.798
-85.479
-84.231
-83.058
-81.964
-80.952
-80.027
-79.189
-78.44
-77.781
-77.212
-76.733
-76.343
-76.04
-75.822
-75.687
-75.632
-75.654
-75.748
-75.912
-76.14
-76.43
-76.777
-77.176
-77.624
-78.117
-78.649
-79.219
-79.82
-80.45
-81.106
-81.784
-82.479
-83.188
-83.908
-84.633
-85.359
-86.08
-86.79
-87.482
-88.15
-88.787
-89.385
-89.937
-90.434
-90.868
-91.231
-91.513
-91.706
-91.801
-91.789
-91.662
-91.412
-91.03
-90.511
-89.846
-89.03
-88.057
-86.923
-85.622
-84.152
-82.509
-80.691
-78.697
-76.53
-74.189
-71.68
-69.006
-66.179
-63.21
-60.115
-56.909
-53.611
-50.242
-46.824
-43.381
-39.936
-36.51
-33.124
-29.805
-26.576
-23.467
-20.507
-17.725
-15.149
-12.807
-10.724
-8.926
-7.433
-6.252
-5.396
-4.875
-4.71
-4.932
-5.572
-6.644
-8.165
-10.143
-12.568
-15.426
-18.679
-22.261
-26.109
-30.157
-34.347
-38.644
-42.997
-47.346
-51.618
-55.707
-59.517
-62.974
-66
-68.537
-70.578
-72.136
-73.296
-74.206
-74.973
-75.714
-76.565
-77.63
-79.063
-81.01
-83.565
-86.92
-91.353
-97.04
-104.029
-112.058
-120.533
-128.864
-136.494
-142.623
-146.333
-146.893
-144.068
-138.675
-132.17
-125.849
-121.02
-119.151
-121.756
-129.856
-141.521
-151.373
-153.988
-145.717
-128.509
-107.443
-83.127
-50.457
5.387
100.339
243.507
435.517
657.401
882.468
1080.407
1219.32
1289.719
1295.844
1252.808
1188.299
1116.104
1038.958
955.411
856.584
740.596
614.9
489.177
371.04
264.188
166.641
70.749
-21.375
-99.799
-155.175
-173.952
-157.89
-124.538
-88.711
-66.266
-61.961
-66.711
-74.74
-81.885
-86.414
-91.336
-96.781
-100.457
-101.348
-98.87
-93.328
-86.088
-78.126
-70.012
-62.648
-57.082
-53.818
-52.914
-54.157
-56.999
-61.03
-66.034
-71.673
-77.609
-83.55
-89.177
-94.236
-98.545
-101.942
-104.317
-105.61
-105.775
-104.812
-102.781
-99.773
-95.921
-91.351
-86.166
-80.466
-74.343
-67.906
-61.277
-54.578
-47.918
-41.378
-35.006
-28.84
-22.904
-17.206
-11.734
-6.46
-1.342
3.653
8.546
13.356
18.101
22.805
27.496
32.197
36.932
41.72
46.576
51.518
56.556
61.699
66.952
72.313
77.782
83.357
89.037
94.823
100.713
106.7
112.779
118.938
125.167
131.449
137.763
144.088
150.398
156.664
162.858
168.948
174.904
180.691
186.277
191.629
196.712
201.494
205.942
210.024
213.711
216.974
219.786
222.123
223.961
225.28
226.065
226.299
225.97
225.07
223.593
221.536
218.899
215.686
211.904
207.563
202.679
197.269
191.355
184.96
178.111
170.842
163.19
155.192
146.889
138.317
129.513
120.526
111.408
102.183
92.88
83.531
74.158
64.817
55.578
46.454
37.452
28.667
20.178
12.049
4.365
-2.899
-9.816
-16.314
-22.281
-27.955
-33.619
-39.089
-44.376
-49.533
-53.923
-59.268
-67.245
-75.473
-83.238
-86.166
-79.018
-67.623
-55.874
-49.557
-56.62
-70.069
-83.984
-94.312
-94.344
-88.911
-82.909
-77.438
-75.49
-75.353
-74.825
-74.343
-73.635
-72.862
-72.484
-72.217
-71.834
-71.419
-70.997
-70.544
-70.071
-69.598
-69.135
-68.727
-68.423
-68.203
-68.044
-67.951
-67.921
-67.948
-68.035
-68.169
-68.339
-68.544
-68.779
-69.042
-69.327
-69.63
-69.946
-70.273
-70.609
-70.952
-71.301
-71.654
-72.012
-72.374
-72.741
-73.113
-73.491
-73.875
-74.268
-74.669
-75.081
-75.505
-75.942
-76.393
-76.86
-77.344
-77.844
-78.362
-78.897
-79.447
-80.012
-80.591
-81.18
-81.779
-82.383
-82.989
-83.593
-84.188
-84.768
-85.327
-85.855
-86.344
-86.786
-87.169
-87.484
-87.723
-87.875
-87.93
-87.88
-87.714
-87.425
-87.004
-86.444
-85.738
-84.881
-83.868
-82.698
-81.368
-79.881
-78.239
-76.446
-74.511
-72.446
-70.261
-67.969
-65.588
-63.134
-60.626
-58.082
-55.521
-52.961
-50.425
-47.935
-45.516
-43.192
-40.989
-38.937
-37.066
-35.401
-33.971
-32.797
-31.895
-31.283
-30.977
-30.995
-31.37
-32.126
-33.274
-34.832
-36.807
-39.193
-41.977
-45.117
-48.543
-52.192
-55.999
-59.904
-63.87
-67.841
-71.757
-75.561
-79.163
-82.487
-85.483
-88.085
-90.246
-91.966
-93.263
-94.242
-95.09
-95.971
-97.02
-98.347
-100.027
-102.176
-104.931
-108.392
-112.692
-117.926
-124.231
-131.879
-140.893
-151.05
-161.984
-172.903
-182.864
-191.149
-196.792
-198.702
-196.674
-190.846
-181.57
-170.58
-159.822
-150.751
-145.402
-143.622
-141.804
-137.127
-128.347
-118.14
-112.862
-112.704
-107.423
-76.958
-0.644
128.841
301.194
491.095
672.617
829.683
956.53
1055.987
1129.606
1175.139
1188.929
1166.623
1107.918
1017.064
900.882
768.13
627.461
485.477
348.142
221.594
111.149
21.152
-46.528
-93.184
-121.402
-133.329
-131.228
-118.253
-98.671
-77.954
-60.474
-47.869
-40.454
-38.404
-42.039
-51.66
-66.192
-82.582
-97.712
-110.112
-119.471
-126.038
-129.854
-130.285
-127.35
-122.433
-117.364
-113.373
-110.944
-109.966
-110.294
-112.253
-116.031
-121.271
-127.284
-133.388
-139.14
-144.368
-148.995
-152.853
-155.77
-157.675
-158.61
-158.682
-157.991
-156.601
-154.548
-151.869
-148.622
-144.879
-140.716
-136.222
-131.485
-126.591
-121.635
-116.684
-111.785
-106.976
-102.278
-97.695
-93.219
-88.824
-84.48
-80.168
-75.869
-71.565
-67.232
-62.846
-58.381
-53.816
-49.133
-44.313
-39.341
-34.206
-28.896
-23.41
-17.744
-11.903
-5.893
0.281
6.613
13.094
19.714
26.46
33.317
40.268
47.296
54.379
61.492
68.608
75.699
82.732
89.676
96.497
103.16
109.628
115.864
121.833
127.497
132.821
137.77
142.31
146.411
150.042
153.176
155.787
157.853
159.353
160.272
160.595
160.313
159.419
157.909
155.784
153.049
149.709
145.776
141.264
136.188
130.57
124.432
117.801
110.706
103.179
95.253
86.965
78.353
69.458
60.324
50.988
41.489
31.868
22.165
12.424
2.691
-7.004
-16.631
-26.137
-35.473
-44.597
-53.459
-62.049
-70.375
-78.388
-86.043
-93.385
-100.447
-107.256
-113.86
-120.204
-126.187
-131.862
-137.325
-142.326
-146.571
-150.246
-153.343
-155.818
-158.328
-159.148
-156.602
-153.124
-149.465
-150.087
-160.326
-174.317
-188.157
-196.025
-189.919
-176.954
-163.167
-152.698
-152.378
-157.353
-162.701
-167.34
-168.276
-167.267
-166.574
-165.778
-165.179
-164.635
-163.7
-162.682
-161.825
-161.057
-160.368
-159.789
-159.321
-158.948
-158.665
-158.432
-158.199
-157.989
-157.823
-157.694
-157.604
-157.551
-157.53
-157.546
-157.605
-157.703
-157.835
-158.001
-158.2
-158.432
-158.698
-158.998
-159.329
-159.69
-160.082
-160.509
-160.97
-161.467
-161.995
-162.546
-163.128
-163.747
-164.381
-165.015
-165.633
-166.212
-166.761
-167.306
-167.814
-168.249
-168.664
-169.096
-169.571
-170.135
-170.733
-171.261
-171.761
-172.315
-172.667
-172.517
-172.029
-171.175
-169.889
-168.789
-166.178
-160.409
-153.82
-147.114
-144.594
-151.408
-161.852
-172.124
-176.562
-167.392
-151.498
-134.718
-121.058
-117.132
-118.232
-119.59
-120.163
-117.058
-111.994
-107.176
-102.221
-97.436
-92.707
-87.628
-82.517
-77.634
-72.933
-68.425
-64.167
-60.188
-56.504
-53.136
-50.073
-47.292
-44.837
-42.753
-41.051
-39.739
-38.822
-38.304
-38.206
-38.568
-39.411
-40.743
-42.567
-44.878
-47.653
-50.865
-54.463
-58.363
-62.481
-66.736
-71.053
-75.384
-79.68
-83.862
-87.836
-91.484
-94.69
-97.391
-99.535
-101.069
-101.999
-102.366
-102.27
-101.888
-101.38
-100.874
-100.511
-100.426
-100.761
-101.711
-103.441
-106.152
-110.152
-115.538
-122.193
-129.816
-137.692
-145.011
-151.124
-155.171
-156.126
-153.553
-147.574
-138.964
-129.637
-121.44
-115.512
-113.031
-114.939
-121.122
-130.376
-139.951
-144.975
-140.379
-121.98
-85.688
-28.183
52.457
156.477
281.492
422.005
570.954
720.747
862.625
987.727
1087.783
1155.618
1186.435
1178.187
1131.144
1047.79
933.765
796.754
645.46
489.294
337.007
196.59
75.349
-21.377
-91.85
-137.036
-159.495
-163.413
-153.201
-133.814
-111.645
-92.387
-79.103
-72.988
-74.025
-80.98
-92.866
-108.437
-124.545
-138.176
-147.905
-153.197
-154.436
-152.69
-148.422
-141.936
-134.768
-128.373
-123.448
-120.49
-119.365
-119.618
-121.252
-124.332
-128.383
-132.972
-137.814
-142.532
-147.007
-151.168
-154.724
-157.46
-159.305
-160.197
-160.142
-159.197
-157.362
-154.677
-151.239
-147.12
-142.404
-137.172
-131.479
-125.406
-119.047
-112.502
-105.877
-99.253
-92.68
-86.196
-79.823
-73.564
-67.416
-61.353
-55.342
-49.357
-43.377
-37.383
-31.362
-25.295
-19.164
-12.949
-6.63
-0.192
6.376
13.086
19.942
26.947
34.098
41.389
48.81
56.351
64.001
71.751
79.589
87.502
95.475
103.49
111.531
119.574
127.598
135.574
143.475
151.271
158.931
166.424
173.717
180.777
187.573
194.071
200.241
206.049
211.467
216.465
221.016
225.096
228.679
231.745
234.277
236.257
237.674
238.517
238.78
238.46
237.555
236.07
234.01
231.384
228.206
224.489
220.253
215.518
210.309
204.654
198.58
192.121
185.31
178.181
170.771
163.117
155.258
147.231
139.075
130.827
122.526
114.208
105.909
97.665
89.509
81.474
73.589
65.885
58.386
51.118
44.102
37.359
30.904
24.753
18.917
13.407
8.229
3.388
-1.113
-5.275
-9.1
-12.592
-15.759
-18.607
-21.149
-23.395
-25.358
-27.052
-28.491
-29.691
-30.668
-31.436
-32.013
-32.414
-32.656
-32.755
-32.727
-32.587
-32.352
-32.036
-31.654
-31.218
-30.741
-30.236
-29.712
-29.18
-28.648
-28.125
-27.618
-27.134
-26.678
-26.255
-25.869
-25.523
-25.218
-24.956
-24.738
-24.564
-24.434
-24.347
-24.305
-24.307
-24.353
-24.444
-24.579
-24.759
-24.985
-25.256
-25.574
-25.937
-26.347
-26.802
-27.305
-27.86
-28.463
-29.112
-29.808
-30.549
-31.336
-32.177
-33.063
-33.982
-34.953
-35.985
-37.089
-38.28
-39.54
-40.836
-42.189
-43.623
-45.073
-46.49
-47.832
-49.039
-50.147
-51.243
-52.265
-53.112
-54.016
-55.25
-56.632
-58.17
-59.906
-61.215
-63.739
-69.073
-74.908
-80.535
-81.722
-73.404
-61.163
-48.715
-41.6
-47.437
-59.473
-71.985
-81.05
-80.191
-74.033
-67.264
-60.928
-57.882
-56.468
-54.555
-52.556
-50.204
-47.652
-45.343
-43.009
-40.442
-37.739
-34.936
-32.033
-29.059
-26.057
-23.062
-20.141
-17.364
-14.735
-12.257
-9.964
-7.884
-6.046
-4.477
-3.196
-2.219
-1.566
-1.262
-1.319
-1.736
-2.515
-3.662
-5.194
-7.147
-9.546
-12.399
-15.709
-19.467
-23.655
-28.247
-33.192
-38.402
-43.791
-49.272
-54.769
-60.238
-65.618
-70.817
-75.727
-80.214
-84.16
-87.494
-90.166
-92.134
-93.396
-94.001
-94.047
-93.704
-93.157
-92.581
-92.156
-92.054
-92.426
-93.418
-95.259
-98.281
-102.717
-108.562
-115.498
-122.965
-130.423
-137.433
-143.32
-147.035
-147.733
-145.218
-140.282
-134.416
-128.828
-124.47
-122.587
-124.721
-132.076
-142.6
-150.591
-150.85
-140.056
-121.073
-100.261
-75.67
-38.827
25.275
133.346
286.968
477.488
690.294
902.299
1096.056
1254.693
1357.221
1395.428
1367.61
1281.848
1161.997
1025.466
883.443
742.865
601.102
460.136
327.887
211.836
119.337
52.753
9.212
-15.539
-26.48
-28.319
-25.955
-24.441
-26.977
-34.901
-48.127
-65.275
-84.558
-104.253
-122.074
-135.588
-143.601
-145.881
-142.817
-135.537
-125.29
-113.21
-100.722
-89.223
-79.484
-71.892
-66.542
-63.232
-61.815
-62.173
-64.031
-67.086
-71.086
-75.793
-81.047
-86.684
-92.422
-97.938
-102.912
-107.1
-110.372
-112.66
-113.923
-114.151
-113.371
-111.653
-109.106
-105.835
-101.93
-97.478
-92.559
-87.274
-81.748
-76.108
-70.485
-64.97
-59.612
-54.445
-49.492
-44.757
-40.229
-35.877
-31.646
-27.503
-23.442
-19.43
-15.415
-11.348
-7.169
-2.854
1.569
6.118
10.864
15.771
20.73
25.653
30.435
35.07
39.708
44.374
48.894
53.459
58.662
64.58
71.038
78.104
85.064
93.285
106.443
123.369
140.781
152.74
148.607
129.937
107.106
90.781
96.077
122.642
156.385
186.497
200.913
198.521
189.88
181.138
176.865
177.984
180.121
181.527
182.274
182.239
182.091
181.924
181.159
179.651
177.498
174.69
171.213
167.105
162.408
157.198
151.597
145.657
139.357
132.717
125.77
118.55
111.096
103.439
95.603
87.619
79.533
71.381
63.2
55.027
46.894
38.833
30.876
23.053
15.394
7.925
0.671
-6.346
-13.105
-19.586
-25.775
-31.658
-37.223
-42.463
-47.369
-51.939
-56.17
-60.062
-63.616
-66.836
-69.727
-72.295
-74.549
-76.499
-78.156
-79.531
-80.638
-81.492
-82.107
-82.497
-82.679
-82.668
-82.48
-82.129
-81.631
-81.002
-80.257
-79.411
-78.478
-77.473
-76.408
-75.297
-74.152
-72.982
-71.797
-70.607
-69.42
-68.242
-67.081
-65.941
-64.829
-63.748
-62.702
-61.694
-60.726
-59.799
-58.915
-58.073
-57.273
-56.514
-55.796
-55.119
-54.48
-53.881
-53.319
-52.794
-52.305
-51.85
-51.428
-51.037
-50.675
-50.341
-50.033
-49.75
-49.492
-49.257
-49.047
-48.86
-48.696
-48.556
-48.44
-48.348
-48.28
-48.238
-48.223
-48.236
-48.28
-48.357
-48.47
-48.621
-48.812
-49.047
-49.326
-49.651
-50.022
-50.442
-50.909
-51.425
-51.989
-52.602
-53.263
-53.971
-54.725
-55.523
-56.362
-57.24
-58.153
-59.097
-60.068
-61.061
-62.072
-63.098
-64.133
-65.172
-66.209
-67.238
-68.253
-69.243
-70.202
-71.119
-71.984
-72.789
-73.524
-74.18
-74.748
-75.221
-75.589
-75.845
-75.982
-75.993
-75.869
-75.606
-75.198
-74.64
-73.931
-73.069
-72.052
-70.883
-69.562
-68.093
-66.479
-64.724
-62.833
-60.809
-58.661
-56.394
-54.018
-51.544
-48.985
-46.358
-43.684
-40.985
-38.284
-35.606
-32.976
-30.417
-27.955
-25.609
-23.4
-21.345
-19.466
-17.784
-16.325
-15.108
-14.154
-13.479
-13.099
-13.027
-13.275
-13.844
-14.732
-15.936
-17.462
-19.331
-21.571
-24.206
-27.246
-30.691
-34.536
-38.766
-43.355
-48.251
-53.371
-58.624
-63.93
-69.213
-74.414
-79.464
-84.266
-88.696
-92.627
-95.94
-98.563
-100.467
-101.613
-101.993
-101.64
-100.613
-99.093
-97.319
-95.484
-93.779
-92.403
-91.511
-91.406
-92.538
-95.146
-99.271
-104.752
-111.111
-117.918
-124.837
-131.24
-136.242
-139.197
-139.932
-138.953
-137.285
-136.192
-136.958
-140.304
-147.238
-156.934
-165.537
-171.262
-172.89
-170.961
-170.297
-166.538
-147.502
-100.812
-11.848
118.425
273.757
438.866
596.797
740.088
871.074
987.04
1084.426
1158.33
1201.735
1212.224
1189.902
1135.258
1051.764
945.18
822.171
690.377
556.215
425.005
302.52
194.296
104.434
34.455
-16.7
-51.635
-72.8
-82.829
-85.339
-84.431
-84.193
-87.212
-94.09
-104.361
-117.331
-132.093
-147.349
-161.436
-172.433
-179.216
-181.754
-180.61
-176.676
-170.903
-164.199
-157.53
-151.911
-147.96
-145.859
-145.572
-146.852
-149.435
-153.119
-157.643
-162.701
-168.077
-173.602
-179.075
-184.324
-189.131
-193.234
-196.46
-198.705
-199.897
-200.022
-199.103
-197.18
-194.326
-190.646
-186.249
-181.242
-175.721
-169.773
-163.481
-156.922
-150.229
-143.546
-136.897
-130.286
-123.718
-117.157
-110.647
-104.275
-97.964
-91.583
-85.344
-79.512
-73.897
-68.502
-63.363
-57.846
-53.579
-52.148
-51.241
-50.146
-44.638
-29.659
-10.793
8.238
21.886
22.524
16.886
10.678
7.808
14.738
26.837
39.408
51.396
59.932
66.657
73.685
80.585
87.606
94.577
101.038
107.243
113.389
119.37
125.138
130.689
135.988
140.987
145.651
149.911
153.692
156.991
159.806
162.108
163.885
165.119
165.795
165.91
165.464
164.45
162.867
160.715
158.001
154.735
150.928
146.597
141.759
136.437
130.654
124.441
117.827
110.846
103.534
95.928
88.069
79.995
71.749
63.371
54.904
46.389
37.865
29.375
20.954
12.642
4.473
-3.519
-11.303
-18.848
-26.127
-33.116
-39.791
-46.133
-52.123
-57.748
-62.994
-67.852
-72.315
-76.38
-80.044
-83.309
-86.18
-88.664
-90.769
-92.508
-93.895
-94.947
-95.68
-96.114
-96.269
-96.168
-95.831
-95.282
-94.543
-93.637
-92.587
-91.416
-90.145
-88.795
-87.388
-85.943
-84.479
-83.014
-81.563
-80.142
-78.765
-77.445
-76.192
-75.018
-73.93
-72.935
-72.039
-71.245
-70.556
-69.971
-69.491
-69.111
-68.83
-68.642
-68.541
-68.522
-68.577
-68.698
-68.879
-69.109
-69.382
-69.688
-70.019
-70.367
-70.722
-71.077
-71.424
-71.756
-72.066
-72.349
-72.599
-72.81
-72.979
-73.102
-73.176
-73.198
-73.169
-73.086
-72.952
-72.767
-72.534
-72.257
-71.939
-71.585
-71.202
-70.794
-70.368
-69.93
-69.486
-69.045
-68.611
-68.194
-67.798
-67.432
-67.101
-66.812
-66.571
-66.385
-66.259
-66.198
-66.206
-66.288
-66.448
-66.689
-67.014
-67.424
-67.921
-68.503
-69.172
-69.924
-70.758
-71.668
-72.65
-73.698
-74.806
-75.966
-77.172
-78.414
-79.682
-80.969
-82.263
-83.553
-84.829
-86.079
-87.291
-88.454
-89.556
-90.586
-91.532
-92.382
-93.124
-93.748
-94.241
-94.593
-94.792
-94.829
-94.694
-94.379
-93.879
-93.187
-92.299
-91.214
-89.929
-88.444
-86.76
-84.881
-82.81
-80.554
-78.119
-75.515
-72.754
-69.851
-66.825
-63.695
-60.482
-57.205
-53.89
-50.563
-47.254
-43.995
-40.813
-37.733
-34.782
-31.989
-29.384
-26.996
-24.849
-22.955
-21.331
-19.993
-18.962
-18.266
-17.918
-17.91
-18.233
-18.88
-19.859
-21.195
-22.902
-24.974
-27.401
-30.177
-33.304
-36.798
-40.643
-44.787
-49.151
-53.642
-58.195
-62.787
-67.416
-72.086
-76.729
-81.218
-85.41
-89.19
-92.512
-95.38
-97.721
-99.372
-100.323
-100.768
-101.218
-102.491
-105.029
-108.781
-113.556
-119.2
-125.618
-132.669
-139.384
-143.692
-144.042
-140.013
-132.074
-121.336
-108.502
-93.908
-79.105
-67.578
-62.769
-66.886
-80.362
-101.785
-130.026
-164.289
-202.205
-238.882
-268.245
-284.479
-283.101
-261.404
-216.457
-145.335
-48.624
68.492
199.45
338.984
487.754
650.197
823.41
993.28
1133.945
1218.515
1234.006
1185.66
1095.08
985.443
871.444
757.29
638.447
513.474
386.559
265.55
160.468
76.434
13.433
-30.305
-58.262
-74.223
-81.333
-83.817
-86.166
-90.912
-99.131
-110.944
-125.403
-141.191
-157.063
-171.114
-181.211
-186.405
-186.58
-182.107
-174.015
-163.424
-151.341
-139.055
-127.864
-118.489
-111.299
-106.4
-103.608
-102.773
-103.768
-106.316
-110.1
-114.854
-120.323
-126.313
-132.632
-138.986
-145.055
-150.537
-155.198
-158.91
-161.605
-163.24
-163.806
-163.338
-161.908
-159.619
-156.574
-152.862
-148.57
-143.782
-138.599
-133.139
-127.52
-121.854
-116.222
-110.671
-105.227
-99.904
-94.698
-89.594
-84.564
-79.569
-74.579
-69.573
-64.535
-59.451
-54.303
-49.071
-43.737
-38.282
-32.695
-26.967
-21.094
-15.071
-8.903
-2.591
3.856
10.427
17.114
23.909
30.801
37.784
44.844
51.967
59.137
66.336
73.544
80.738
87.891
94.977
101.967
108.833
115.545
122.073
128.386
134.455
140.25
145.743
150.906
155.713
160.138
164.158
167.752
170.9
173.583
175.787
177.497
178.702
179.392
179.562
179.207
178.325
176.919
174.993
172.554
169.613
166.182
162.277
157.917
153.123
147.919
142.33
136.385
130.114
123.548
116.719
109.661
102.409
94.995
87.456
79.823
72.133
64.417
56.707
49.036
41.434
33.929
26.549
19.321
12.269
5.416
-1.218
-7.613
-13.753
-19.622
-25.208
-30.501
-35.492
-40.174
-44.542
-48.595
-52.332
-55.754
-58.864
-61.668
-64.172
-66.384
-68.313
-69.97
-71.365
-72.51
-73.419
-74.104
-74.579
-74.858
-74.954
-74.883
-74.657
-74.292
-73.802
-73.199
-72.496
-71.708
-70.844
-69.917
-68.937
-67.914
-66.858
-65.776
-64.677
-63.569
-62.457
-61.349
-60.248
-59.16
-58.089
-57.038
-56.011
-55.009
-54.034
-53.089
-52.176
-51.294
-50.446
-49.632
-48.853
-48.108
-47.398
-46.722
-46.08
-45.471
-44.895
-44.35
-43.837
-43.355
-42.904
-42.484
-42.095
-41.737
-41.41
-41.114
-40.85
-40.618
-40.416
-40.247
-40.108
-40.002
-39.927
-39.882
-39.868
-39.883
-39.926
-39.996
-40.091
-40.208
-40.346
-40.502
-40.673
-40.857
-41.051
-41.253
-41.459
-41.667
-41.873
-42.073
-42.265
-42.442
-42.602
-42.737
-42.843
-42.913
-42.943
-42.926
-42.855
-42.725
-42.53
-42.263
-41.919
-41.491
-40.974
-40.362
-39.651
-38.836
-37.913
-36.879
-35.732
-34.469
-33.088
-31.589
-29.971
-28.234
-26.38
-24.409
-22.324
-20.128
-17.826
-15.423
-12.926
-10.344
-7.685
-4.966
-2.201
0.595
3.404
6.205
8.979
11.707
14.366
16.942
19.415
21.767
23.979
26.029
27.896
29.558
30.994
32.185
33.112
33.757
34.107
34.155
33.896
33.325
32.43
31.186
29.573
27.578
25.197
22.432
19.295
15.809
12.016
7.982
3.776
-0.533
-4.886
-9.241
-13.554
-17.774
-21.828
-25.621
-29.062
-32.084
-34.644
-36.709
-38.272
-39.365
-40.08
-40.58
-41.022
-41.536
-42.227
-43.183
-44.528
-46.401
-48.956
-52.339
-56.723
-62.336
-69.252
-77.32
-86.141
-95.021
-103.184
-109.937
-114.5
-115.879
-113.511
-107.597
-99.031
-89.478
-80.573
-73.275
-68.496
-67.493
-70.787
-77.297
-84.275
-87.499
-82.67
-66.201
-34.359
16.748
90.42
186.127
298.526
423.255
556.432
695.94
843.159
988.282
1112.876
1200.233
1231.991
1204.94
1132.529
1027.479
905.948
778.279
644.365
507.94
373.944
249.001
143.248
62.012
5.708
-27.44
-41.722
-42.091
-32.965
-19.791
-8.122
-1.303
-0.868
-6.983
-18.443
-33.564
-50.693
-67.424
-81.193
-90.736
-95.623
-96.122
-93.271
-88.101
-81.564
-74.849
-69.07
-64.82
-62.364
-61.678
-62.484
-64.578
-67.771
-71.797
-76.395
-81.348
-86.503
-91.731
-96.883
-101.751
-106.089
-109.716
-112.524
-114.462
-115.514
-115.678
-114.981
-113.481
-111.27
-108.438
-105.056
-101.194
-96.911
-92.283
-87.407
-82.387
-77.33
-72.317
-67.398
-62.605
-57.956
-53.456
-49.097
-44.857
-40.698
-36.59
-32.514
-28.453
-24.394
-20.317
-16.2
-12.02
-7.752
-3.38
1.113
5.737
10.503
15.415
20.473
25.674
31.009
36.47
42.05
47.743
53.539
59.429
65.399
71.434
77.52
83.635
89.76
95.868
101.934
107.93
113.827
119.595
125.204
130.625
135.824
140.773
145.439
149.794
153.809
157.454
160.706
163.538
165.93
167.86
169.314
170.276
170.735
170.683
170.115
169.028
167.423
165.303
162.675
159.548
155.934
151.849
147.309
142.336
136.953
131.185
125.06
118.608
111.861
104.851
97.612
90.179
82.587
74.872
67.07
59.216
51.346
43.495
35.695
27.98
20.379
12.922
5.635
-1.456
-8.329
-14.963
-21.34
-27.442
-33.256
-38.77
-43.972
-48.857
-53.418
-57.651
-61.556
-65.133
-68.386
-71.319
-73.939
-76.255
-78.275
-80.012
-81.479
-82.687
-83.654
-84.393
-84.922
-85.257
-85.414
-85.412
-85.266
-84.994
-84.612
-84.134
-83.576
-82.952
-82.275
-81.558
-80.813
-80.052
-79.284
-78.52
-77.769
-77.039
-76.337
-75.669
-75.042
-74.46
-73.927
-73.445
-73.017
-72.643
-72.324
-72.059
-71.847
-71.686
-71.573
-71.505
-71.478
-71.488
-71.531
-71.602
-71.697
-71.811
-71.94
-72.081
-72.229
-72.381
-72.535
-72.686
-72.832
-72.971
-73.099
-73.215
-73.315
-73.399
-73.463
-73.506
-73.527
-73.524
-73.498
-73.446
-73.371
-73.27
-73.147
-73.001
-72.836
-72.652
-72.452
-72.241
-72.02
-71.794
-71.566
-71.34
-71.12
-70.909
-70.712
-70.53
-70.368
-70.228
-70.112
-70.022
-69.962
-69.932
-69.934
-69.969
-70.039
-70.145
-70.287
-70.466
-70.681
-70.931
-71.217
-71.535
-71.885
-72.264
-72.667
-73.091
-73.531
-73.981
-74.434
-74.885
-75.324
-75.746
-76.141
-76.501
-76.817
-77.08
-77.282
-77.413
-77.465
-77.429
-77.297
-77.061
-76.714
-76.25
-75.663
-74.946
-74.095
-73.106
-71.977
-70.706
-69.292
-67.736
-66.039
-64.206
-62.24
-60.149
-57.942
-55.63
-53.227
-50.751
-48.218
-45.649
-43.068
-40.495
-37.957
-35.475
-33.07
-30.766
-28.584
-26.548
-24.684
-23.017
-21.575
-20.384
-19.469
-18.852
-18.555
-18.595
-18.98
-19.716
-20.81
-22.277
-24.142
-26.425
-29.14
-32.293
-35.883
-39.9
-44.317
-49.087
-54.14
-59.405
-64.811
-70.301
-75.829
-81.344
-86.793
-92.093
-97.137
-101.835
-106.102
-109.873
-113.099
-115.754
-117.858
-119.505
-120.842
-122.005
-123.1
-124.197
-125.386
-126.796
-128.563
-130.888
-133.921
-137.839
-142.95
-149.31
-156.744
-164.868
-172.833
-179.716
-184.877
-187.45
-186.449
-181.823
-173.979
-163.983
-154.201
-146.398
-141.483
-140.806
-145.166
-153.615
-164.343
-173.724
-175.933
-166.42
-141.451
-96.712
-29.37
61.354
174.416
305.411
447.196
593.062
735.463
865.443
974.78
1056.161
1104.521
1118.073
1096.95
1042.204
957.238
848.048
722.161
588.086
453.034
323.041
204.217
101.984
20.121
-40.15
-80.304
-103.403
-112.261
-110.039
-100.908
-89.278
-79.432
-74.019
-73.537
-77.427
-84.961
-95.16
-106.662
-117.732
-126.337
-131.339
-132.769
-131.251
-127.736
-123.087
-117.993
-113.246
-109.731
-107.965
-108.077
-109.94
-113.19
-117.496
-122.626
-128.326
-134.325
-140.396
-146.313
-151.834
-156.749
-160.898
-164.161
-166.47
-167.792
-168.105
-167.42
-165.808
-163.373
-160.221
-156.445
-152.122
-147.314
-142.107
-136.605
-130.916
-125.158
-119.411
-113.726
-108.147
-102.702
-97.406
-92.265
-87.257
-82.345
-77.502
-72.71
-67.954
-63.226
-58.51
-53.782
-49.022
-44.213
-39.336
-34.382
-29.337
-24.191
-18.938
-13.575
-8.105
-2.533
3.137
8.902
14.759
20.704
26.73
32.828
38.988
45.2
51.448
57.715
63.982
70.227
76.427
82.558
88.595
94.512
100.281
105.875
111.266
116.427
121.331
125.948
130.255
134.224
137.833
141.058
143.88
146.278
148.236
149.74
150.776
151.335
151.41
150.995
150.089
148.693
146.81
144.447
141.612
138.319
134.58
130.414
125.84
120.88
115.557
109.898
103.928
97.677
91.174
84.451
77.539
70.471
63.278
55.993
48.649
41.278
33.911
26.577
19.306
12.125
5.062
-1.86
-8.617
-15.188
-21.554
-27.696
-33.599
-39.251
-44.639
-49.754
-54.591
-59.142
-63.406
-67.38
-71.064
-74.46
-77.571
-80.401
-82.955
-85.24
-87.265
-89.037
-90.568
-91.869
-92.95
-93.825
-94.505
-95.003
-95.332
-95.505
-95.533
-95.429
-95.204
-94.871
-94.441
-93.924
-93.33
-92.67
-91.951
-91.182
-90.369
-89.521
-88.642
-87.737
-86.812
-85.871
-84.918
-83.957
-82.992
-82.026
-81.062
-80.103
-79.151
-78.207
-77.272
-76.348
-75.436
-74.535
-73.646
-72.77
-71.907
-71.057
-70.22
-69.397
-68.586
-67.789
-67.004
-66.23
-65.469
-64.717
-63.976
-63.245
-62.523
-61.811
-61.107
-60.411
-59.723
-59.041
-58.365
-57.693
-57.024
-56.355
-55.687
-55.016
-54.342
-53.664
-52.982
-52.293
-51.599
-50.898
-50.19
-49.475
-48.754
-48.025
-47.29
-46.549
-45.803
-45.054
-44.303
-43.554
-42.808
-42.069
-41.341
-40.625
-39.927
-39.25
-38.598
-37.976
-37.388
-36.838
-36.333
-35.877
-35.475
-35.132
-34.852
-34.641
-34.5
-34.434
-34.443
-34.531
-34.697
-34.942
-35.266
-35.669
-36.147
-36.7
-37.325
-38.018
-38.775
-39.59
-40.457
-41.368
-42.317
-43.295
-44.29
-45.293
-46.294
-47.279
-48.238
-49.158
-50.026
-50.83
-51.554
-52.187
-52.715
-53.125
-53.404
-53.54
-53.524
-53.345
-52.996
-52.47
-51.761
-50.865
-49.78
-48.505
-47.039
-45.384
-43.544
-41.522
-39.326
-36.963
-34.444
-31.779
-28.985
-26.077
-23.078
-20.01
-16.898
-13.767
-10.647
-7.565
-4.552
-1.634
1.162
3.812
6.287
8.561
10.601
12.379
13.87
15.05
15.895
16.386
16.502
16.231
15.573
14.524
13.08
11.227
8.937
6.188
2.978
-0.694
-4.815
-9.366
-14.323
-19.636
-25.225
-31.007
-36.895
-42.814
-48.71
-54.517
-60.154
-65.511
-70.459
-74.884
-78.701
-81.859
-84.322
-86.072
-87.124
-87.552
-87.485
-87.092
-86.558
-86.046
-85.721
-85.75
-86.275
-87.541
-89.871
-93.446
-98.297
-104.197
-110.613
-117.034
-123.049
-128.02
-131.109
-131.642
-129.233
-124.314
-118.209
-112.237
-107.421
-104.632
-104.667
-108.037
-114.632
-122.677
-128.52
-127.989
-117.125
-92.104
-49.056
15.574
104.44
215.896
343.494
480.318
620.934
764.948
914.395
1065.16
1203.55
1306.171
1350.266
1325.089
1237.004
1109.705
968.526
830.349
702.225
580.038
461.026
349.162
250.393
171.115
113.406
74.211
49.021
33.786
25.023
18.78
11.255
0.09
-15.514
-34.797
-56.109
-78.126
-99.633
-118.779
-133.687
-143.324
-147.469
-146.645
-141.884
-134.138
-124.255
-113.314
-102.436
-92.363
-83.533
-76.118
-70.083
-65.453
-62.251
-60.369
-59.625
-59.824
-60.804
-62.473
-64.763
-67.531
-70.608
-73.826
-77.057
-80.257
-83.373
-86.318
-88.968
-91.162
-92.81
-93.895
-94.433
-94.474
-94.055
-93.187
-91.912
-90.298
-88.393
-86.239
-83.829
-81.088
-77.991
-74.555
-70.84
-66.963
-62.995
-58.958
-54.871
-50.742
-46.579
-42.396
-38.178
-33.875
-29.463
-24.937
-20.315
-15.656
-10.983
-6.289
-1.55
3.287
8.256
13.368
18.644
24.104
29.757
35.605
41.631
47.791
54.054
60.4
66.811
73.278
79.784
86.296
92.782
99.205
105.527
111.712
117.717
123.498
129.013
134.226
139.108
143.636
147.785
151.529
154.844
157.709
160.103
162.008
163.406
164.28
164.616
164.406
163.644
162.331
160.469
158.061
155.118
151.651
147.675
143.208
138.268
132.88
127.067
120.858
114.283
107.374
100.167
92.697
85.001
77.117
69.083
60.937
52.716
44.456
36.193
27.962
19.797
11.73
3.791
-3.99
-11.583
-18.962
-26.102
-32.981
-39.58
-45.881
-51.87
-57.534
-62.863
-67.85
-72.491
-76.781
-80.722
-84.313
-87.558
-90.464
-93.038
-95.291
-97.234
-98.881
-100.247
-101.348
-102.2
-102.82
-103.226
-103.436
-103.466
-103.336
-103.062
-102.662
-102.154
-101.553
-100.876
-100.14
-99.358
-98.545
-97.714
-96.877
-96.045
-95.227
-94.434
-93.673
-92.952
-92.277
-91.654
-91.087
-90.578
-90.131
-89.746
-89.423
-89.161
-88.957
-88.81
-88.716
-88.671
-88.671
-88.711
-88.789
-88.898
-89.036
-89.197
-89.377
-89.573
-89.78
-89.994
-90.213
-90.433
-90.651
-90.865
-91.072
-91.27
-91.458
-91.634
-91.796
-91.943
-92.074
-92.187
-92.283
-92.361
-92.421
-92.464
-92.49
-92.502
-92.501
-92.49
-92.469
-92.443
-92.412
-92.381
-92.35
-92.321
-92.298
-92.281
-92.273
-92.274
-92.286
-92.311
-92.349
-92.401
-92.467
-92.548
-92.644
-92.757
-92.886
-93.031
-93.195
-93.376
-93.578
-93.8
-94.044
-94.311
-94.602
-94.916
-95.255
-95.618
-96.006
-96.417
-96.851
-97.308
-97.787
-98.287
-98.807
-99.347
-99.905
-100.479
-101.069
-101.673
-102.289
-102.914
-103.548
-104.186
-104.828
-105.471
-106.111
-106.745
-107.369
-107.979
-108.569
-109.134
-109.668
-110.163
-110.612
-111.008
-111.342
-111.607
-111.796
-111.901
-111.914
-111.828
-111.634
-111.327
-110.897
-110.339
-109.645
-108.81
-107.827
-106.691
-105.401
-103.951
-102.339
-100.565
-98.629
-96.53
-94.271
-91.853
-89.281
-86.559
-83.696
-80.697
-77.573
-74.337
-71.004
-67.592
-64.123
-60.618
-57.099
-53.593
-50.124
-46.717
-43.397
-40.183
-37.099
-34.166
-31.409
-28.855
-26.53
-24.455
-22.653
-21.143
-19.941
-19.065
-18.524
-18.318
-18.448
-18.921
-19.751
-20.97
-22.601
-24.654
-27.136
-30.038
-33.346
-37.042
-41.082
-45.397
-49.914
-54.556
-59.258
-63.969
-68.63
-73.162
-77.459
-81.387
-84.825
-87.679
-89.883
-91.401
-92.21
-92.32
-91.792
-90.73
-89.286
-87.636
-85.945
-84.391
-83.161
-82.414
-82.427
-83.585
-86.103
-90.012
-95.042
-100.543
-105.907
-110.69
-114.227
-115.663
-114.428
-110.371
-104.295
-98.013
-93.227
-91.09
-92.528
-98.293
-108.496
-122.329
-137.124
-148.154
-150.42
-139.647
-111.627
-62.251
11.148
110.19
232.229
369.159
515.327
666.532
819.842
976.344
1126.558
1252.211
1336.915
1362.758
1327.741
1247.04
1135.464
1011.36
884.846
754.243
621.921
491.137
367.649
261.553
177.654
115.861
74.653
50.242
38.441
35.902
38.049
39.969
38.923
33.798
24.476
11.974
-2.354
-17.32
-30.914
-40.875
-46.241
-46.806
-42.941
-35.742
-26.228
-15.32
-4.293
5.627
13.756
19.728
23.509
25.35
25.405
23.842
20.945
17.011
12.334
7.143
1.597
-4.12
-9.775
-15.106
-19.836
-23.776
-26.835
-28.952
-30.108
-30.326
-29.635
-28.113
-25.871
-23.002
-19.6
-15.754
-11.537
-7.045
-2.386
2.339
7.02
11.582
15.989
20.216
24.256
28.119
31.822
35.394
38.884
42.324
45.742
49.165
52.612
56.109
59.685
63.369
67.185
71.159
75.305
79.638
84.17
88.905
93.848
98.995
104.341
109.878
115.601
121.503
127.574
133.803
140.174
146.669
153.27
159.952
166.691
173.456
180.216
186.94
193.592
200.138
206.543
212.769
218.781
224.543
230.017
235.169
239.965
244.371
248.356
251.891
254.947
257.499
259.525
261.005
261.922
262.263
262.016
261.175
259.737
257.701
255.073
251.857
248.067
243.715
238.82
233.402
227.486
221.097
214.266
207.024
199.405
191.444
183.179
174.646
165.885
156.935
147.836
138.626
129.346
120.034
110.729
101.466
92.282
83.212
74.287
65.54
56.998
48.689
40.637
32.864
25.39
18.232
11.404
4.918
-1.216
-6.993
-12.409
-17.462
-22.153
-26.487
-30.467
-34.101
-37.4
-40.372
-43.031
-45.39
-47.464
-49.269
-50.821
-52.138
-53.239
-54.141
-54.863
-55.424
-55.843
-56.138
-56.327
-56.429
-56.462
-56.441
-56.385
-56.308
-56.226
-56.152
-56.1
-56.082
-56.107
-56.186
-56.327
-56.536
-56.821
-57.185
-57.634
-58.17
-58.795
-59.512
-60.32
-61.22
-62.21
-63.287
-64.451
-65.696
-67.021
-68.419
-69.888
-71.422
-73.016
-74.665
-76.364
-78.106
-79.885
-81.696
-83.531
-85.385
-87.25
-89.121
-90.993
-92.858
-94.714
-96.554
-98.375
-100.173
-101.945
-103.687
-105.397
-107.071
-108.708
-110.306
-111.864
-113.381
-114.858
-116.295
-117.692
-119.051
-120.374
-121.663
-122.92
-124.148
-125.348
-126.525
-127.681
-128.821
-129.949
-131.068
-132.185
-133.302
-134.425
-135.558
-136.704
-137.867
-139.05
-140.256
-141.486
-142.744
-144.029
-145.345
-146.69
-148.065
-149.471
-150.906
-152.369
-153.858
-155.369
-156.899
-158.445
-160
-161.56
-163.119
-164.67
-166.207
-167.72
-169.201
-170.641
-172.028
-173.352
-174.602
-175.766
-176.834
-177.795
-178.636
-179.347
-179.92
-180.343
-180.609
-180.708
-180.633
-180.376
-179.933
-179.298
-178.466
-177.434
-176.199
-174.76
-173.118
-171.274
-169.23
-166.988
-164.556
-161.938
-159.143
-156.182
-153.066
-149.81
-146.434
-142.958
-139.404
-135.798
-132.164
-128.528
-124.918
-121.359
-117.872
-114.482
-111.209
-108.076
-105.109
-102.333
-99.772
-97.45
-95.39
-93.612
-92.14
-90.989
-90.164
-89.674
-89.524
-89.732
-90.326
-91.329
-92.749
-94.591
-96.853
-99.515
-102.548
-105.897
-109.473
-113.186
-116.949
-120.682
-124.335
-127.851
-131.155
-134.161
-136.764
-138.875
-140.449
-141.459
-141.866
-141.683
-140.985
-139.911
-138.705
-137.6
-136.752
-136.314
-136.435
-137.259
-138.981
-141.786
-145.781
-151.1
-157.909
-166.197
-175.821
-186.401
-197.124
-207.088
-215.452
-221.204
-223.327
-221.311
-215.105
-205.27
-193.357
-180.893
-168.982
-158.99
-152.173
-148.68
-147.489
-146.325
-141.164
-127.635
-101.945
-59.818
3.276
88.397
192.748
312.79
442.102
578.636
726.744
882.219
1034.686
1164.449
1240.545
1247.417
1186.648
1070.855
927.162
772.582
609.782
445.355
284.986
139.94
30.586
-37.754
-73.382
-86.39
-92.458
-98.762
-101.318
-100.279
-96.756
-92.723
-93.594
-101.083
-113.544
-129.121
-145.339
-159.57
-169.941
-175.533
-175.935
-171.553
-163.62
-153.302
-141.696
-130.14
-119.739
-111.095
-104.582
-100.204
-97.701
-96.92
-97.669
-99.67
-102.671
-106.424
-110.727
-115.444
-120.39
-125.325
-129.989
-134.098
-137.462
-139.997
-141.647
-142.409
-142.302
-141.334
-139.548
-137.026
-133.834
-130.043
-125.707
-120.86
-115.579
-109.98
-104.21
-98.425
-92.726
-87.147
-81.691
-76.339
-71.089
-65.965
-60.985
-56.129
-51.391
-46.784
-42.362
-38.202
-34.327
-30.675
-27.116
-23.517
-19.803
-15.938
-11.922
-7.743
-3.359
1.286
6.233
11.49
17.077
23.046
29.51
36.597
44.356
52.725
61.553
70.693
80.054
89.573
99.204
108.871
118.479
127.948
137.226
146.281
155.059
163.465
171.351
178.558
185
190.673
195.64
199.953
203.626
206.66
209.057
210.845
212.055
212.688
212.716
212.106
210.855
208.987
206.563
203.645
200.264
196.419
192.091
187.269
181.964
176.188
169.954
163.264
156.132
148.595
140.711
132.539
124.128
115.513
106.724
97.795
88.767
79.683
70.588
61.522
52.524
43.633
34.891
26.339
18.011
9.934
2.127
-5.393
-12.608
-19.501
-26.058
-32.269
-38.125
-43.619
-48.745
-53.497
-57.874
-61.879
-65.518
-68.798
-71.726
-74.313
-76.572
-78.516
-80.159
-81.517
-82.605
-83.44
-84.039
-84.419
-84.596
-84.589
-84.415
-84.091
-83.633
-83.058
-82.382
-81.617
-80.778
-79.878
-78.928
-77.938
-76.919
-75.879
-74.826
-73.768
-72.711
-71.662
-70.625
-69.604
-68.603
-67.623
-66.667
-65.736
-64.83
-63.949
-63.094
-62.264
-61.459
-60.679
-59.922
-59.188
-58.476
-57.784
-57.111
-56.456
-55.816
-55.191
-54.58
-53.98
-53.392
-52.814
-52.246
-51.687
-51.137
-50.595
-50.062
-49.537
-49.021
-48.514
-48.018
-47.532
-47.058
-46.598
-46.154
-45.726
-45.317
-44.928
-44.56
-44.214
-43.891
-43.593
-43.321
-43.075
-42.858
-42.671
-42.517
-42.399
-42.316
-42.265
-42.248
-42.264
-42.313
-42.404
-42.528
-42.675
-42.864
-43.107
-43.413
-43.8
-44.25
-44.728
-45.256
-45.857
-46.464
-47.026
-47.5
-47.824
-48.036
-48.223
-48.326
-48.243
-48.211
-48.514
-48.966
-49.575
-50.385
-50.758
-52.375
-56.871
-61.882
-66.687
-66.956
-57.511
-44.064
-30.418
-22.245
-27.337
-38.788
-50.743
-59.19
-57.501
-50.409
-42.715
-35.484
-31.647
-29.509
-26.896
-24.236
-21.265
-18.143
-15.33
-12.556
-9.61
-6.589
-3.532
-0.43
2.689
5.786
8.828
11.745
14.457
16.956
19.237
21.264
23.016
24.466
25.589
26.379
26.834
26.938
26.667
25.985
24.864
23.288
21.253
18.759
15.822
12.461
8.717
4.662
0.37
-4.087
-8.639
-13.243
-17.844
-22.375
-26.743
-30.829
-34.532
-37.782
-40.525
-42.729
-44.392
-45.531
-46.236
-46.664
-46.951
-47.25
-47.705
-48.429
-49.598
-51.393
-53.966
-57.551
-62.407
-68.625
-76.141
-84.662
-93.58
-102.278
-110.186
-116.519
-120.406
-121.26
-118.886
-113.811
-107.312
-100.686
-94.897
-90.805
-89.224
-90.524
-94.362
-98.928
-100.76
-95.754
-80.014
-50.194
-2.958
64.89
155.509
268.833
400.171
540.981
683.024
819.865
950.21
1075.502
1191.234
1286.998
1344.665
1344.168
1276.914
1145.648
966.21
764.019
563.256
386.648
249.597
155.792
99.992
67.226
42.636
18.996
-4.097
-20.555
-26.598
-24.739
-20.424
-19.712
-25.236
-35.985
-49.924
-65.035
-79.81
-92.816
-102.402
-107.621
-108.459
-105.58
-100.099
-93.058
-85.357
-77.967
-71.84
-67.557
-65.31
-65.024
-66.432
-69.285
-73.369
-78.424
-84.151
-90.298
-96.672
-103.074
-109.324
-115.2
-120.449
-124.894
-128.429
-130.997
-132.589
-133.224
-132.937
-131.8
-129.918
-127.383
-124.289
-120.72
-116.75
-112.472
-107.988
-103.402
-98.822
-94.325
-89.957
-85.748
-81.707
-77.832
-74.111
-70.516
-67.006
-63.549
-60.119
-56.691
-53.25
-49.772
-46.229
-42.594
-38.839
-34.942
-30.885
-26.652
-22.231
-17.611
-12.79
-7.765
-2.542
2.876
8.485
14.282
20.26
26.412
32.724
39.184
45.776
52.48
59.273
66.129
73.019
79.912
86.775
93.575
100.275
106.84
113.232
119.412
125.344
130.99
136.312
141.273
145.839
149.975
153.65
156.832
159.495
161.614
163.168
164.136
164.505
164.263
163.4
161.912
159.797
157.058
153.701
149.734
145.173
140.035
134.339
128.111
121.379
114.18
106.549
98.516
90.112
81.371
72.333
63.045
53.553
43.887
34.088
24.223
14.383
4.656
-4.899
-14.269
-23.453
-32.4
-41.082
-49.569
-57.998
-66.487
-75.081
-83.69
-92.166
-100.517
-108.627
-115.941
-121.987
-126.718
-130.257
-133.094
-134.31
-130.886
-121.376
-107.886
-98.318
-104.114
-130.781
-172.897
-213.37
-232.111
-219.788
-183.002
-140.812
-112.271
-104.079
-108.098
-112.876
-112.887
-111.574
-122.657
-149.633
-182.14
-207.498
-207.694
-181.199
-144.895
-112.269
-97.446
-102.796
-115.83
-128.883
-136.683
-137.579
-136.563
-135.862
-135.3
-135.091
-134.48
-133.264
-132.126
-131.268
-130.579
-130.084
-129.807
-129.712
-129.76
-129.882
-129.955
-129.939
-129.886
-129.807
-129.692
-129.54
-129.343
-129.102
-128.831
-128.533
-128.2
-127.83
-127.422
-126.977
-126.5
-125.995
-125.465
-124.915
-124.352
-123.78
-123.206
-122.636
-122.076
-121.534
-121.015
-120.525
-120.069
-119.654
-119.283
-118.962
-118.694
-118.483
-118.33
-118.236
-118.202
-118.228
-118.312
-118.452
-118.647
-118.893
-119.186
-119.524
-119.9
-120.311
-120.75
-121.211
-121.684
-122.162
-122.636
-123.093
-123.524
-123.917
-124.26
-124.543
-124.753
-124.878
-124.908
-124.831
-124.636
-124.313
-123.852
-123.244
-122.482
-121.558
-120.467
-119.204
-117.768
-116.154
-114.364
-112.398
-110.258
-107.946
-105.467
-102.824
-100.026
-97.079
-93.991
-90.773
-87.439
-84.003
-80.487
-76.911
-73.297
-69.67
-66.056
-62.481
-58.972
-55.553
-52.243
-49.065
-46.041
-43.192
-40.545
-38.124
-35.948
-34.039
-32.415
-31.09
-30.079
-29.386
-29.008
-28.943
-29.194
-29.773
-30.706
-32.014
-33.71
-35.8
-38.276
-41.126
-44.325
-47.827
-51.561
-55.451
-59.422
-63.406
-67.357
-71.217
-74.909
-78.329
-81.348
-83.85
-85.745
-86.978
-87.513
-87.335
-86.464
-84.974
-82.998
-80.692
-78.201
-75.643
-73.152
-70.902
-69.122
-68.12
-68.25
-69.773
-72.81
-77.251
-82.65
-88.382
-93.772
-98.027
-100.266
-99.748
-96.069
-89.759
-82.578
-76.68
-73.961
-74.24
-75.435
-76.601
-78.142
-84.616
-102.231
-129.276
-155.363
-160.745
-122.729
-31.511
105.844
269.307
435.797
590.799
732.039
863.798
986.277
1094.379
1180.164
1234.911
1255.582
1243.404
1199.089
1125.095
1026.316
908.294
778.068
643.211
509.053
380.543
263.918
164.181
84.234
25.122
-14.648
-37.809
-46.474
-43.626
-33.719
-21.138
-9.879
-2.442
0.767
0.12
-4.015
-10.732
-18.597
-25.924
-30.785
-32.246
-30.574
-26.415
-20.66
-14.167
-7.62
-1.816
2.377
4.531
4.623
2.837
-0.407
-4.757
-9.97
-15.743
-21.799
-27.893
-33.757
-39.162
-43.915
-47.86
-50.902
-52.988
-54.078
-54.173
-53.321
-51.601
-49.136
-46.04
-42.407
-38.322
-33.863
-29.12
-24.204
-19.222
-14.278
-9.447
-4.773
-0.29
3.981
8.034
11.879
15.544
19.072
22.496
25.84
29.126
32.371
35.6
38.843
42.125
45.472
48.907
52.448
56.113
59.917
63.871
67.982
72.252
76.681
81.268
86.015
90.92
95.983
101.199
106.559
112.055
117.675
123.402
129.217
135.1
141.023
146.961
152.886
158.767
164.572
170.27
175.827
181.208
186.378
191.303
195.948
200.278
204.261
207.863
211.056
213.81
216.098
217.898
219.186
219.944
220.157
219.81
218.893
217.401
215.328
212.675
209.446
205.648
201.291
196.39
190.963
185.031
178.618
171.751
164.459
156.775
148.733
140.369
131.72
122.826
113.725
104.46
95.07
85.598
76.082
66.564
57.082
47.673
38.375
29.221
20.245
11.479
2.95
-5.313
-13.285
-20.944
-28.271
-35.249
-41.862
-48.1
-53.953
-59.416
-64.485
-69.159
-73.44
-77.332
-80.84
-83.975
-86.745
-89.164
-91.245
-93.004
-94.457
-95.624
-96.521
-97.168
-97.583
-97.787
-97.797
-97.634
-97.316
-96.861
-96.287
-95.612
-94.853
-94.027
-93.148
-92.233
-91.293
-90.342
-89.391
-88.451
-87.531
-86.639
-85.782
-84.967
-84.198
-83.48
-82.814
-82.204
-81.649
-81.149
-80.704
-80.312
-79.971
-79.678
-79.432
-79.23
-79.069
-78.948
-78.865
-78.818
-78.806
-78.826
-78.876
-78.957
-79.065
-79.201
-79.362
-79.549
-79.762
-79.999
-80.261
-80.547
-80.859
-81.196
-81.558
-81.947
-82.363
-82.806
-83.28
-83.785
-84.325
-84.901
-85.516
-86.173
-86.874
-87.622
-88.417
-89.261
-90.155
-91.099
-92.093
-93.137
-94.229
-95.369
-96.555
-97.784
-99.053
-100.36
-101.7
-103.07
-104.465
-105.88
-107.31
-108.751
-110.197
-111.644
-113.085
-114.515
-115.927
-117.314
-118.668
-119.982
-121.245
-122.448
-123.583
-124.638
-125.606
-126.476
-127.239
-127.884
-128.404
-128.788
-129.029
-129.116
-129.043
-128.8
-128.381
-127.78
-126.993
-126.015
-124.842
-123.473
-121.905
-120.14
-118.178
-116.018
-113.665
-111.122
-108.394
-105.487
-102.409
-99.171
-95.786
-92.272
-88.648
-84.933
-81.15
-77.323
-73.475
-69.631
-65.814
-62.046
-58.347
-54.743
-51.259
-47.923
-44.765
-41.814
-39.096
-36.635
-34.456
-32.582
-31.028
-29.804
-28.917
-28.374
-28.198
-28.423
-29.079
-30.18
-31.734
-33.737
-36.174
-39.023
-42.239
-45.749
-49.484
-53.368
-57.344
-61.376
-65.414
-69.399
-73.24
-76.815
-80.024
-82.796
-85.075
-86.831
-88.068
-88.805
-89.14
-89.232
-89.204
-89.205
-89.362
-89.785
-90.647
-92.12
-94.366
-97.636
-102.236
-108.268
-115.611
-123.887
-132.39
-140.441
-147.488
-152.779
-155.374
-154.76
-151.145
-145.459
-139.446
-134.708
-131.951
-131.789
-135.096
-141.872
-150.797
-159.103
-162.207
-155.413
-135.536
-99.56
-44.154
32.739
131.496
250.07
383.271
524.921
669.321
809.504
937.158
1044.291
1123.584
1170.076
1181.859
1158.011
1098.626
1007.006
889.278
753.215
607.961
461.742
321.604
195.257
89.504
7.837
-49.073
-82.992
-97.88
-97.713
-86.65
-70.554
-55.158
-44.171
-39.609
-41.643
-48.951
-60.245
-74.025
-87.765
-98.949
-106.061
-108.455
-106.523
-101.335
-93.9
-85.236
-76.557
-69.006
-63.296
-59.726
-58.242
-58.562
-60.409
-63.538
-67.659
-72.442
-77.653
-83.126
-88.676
-94.145
-99.321
-103.942
-107.839
-110.913
-113.091
-114.357
-114.725
-114.215
-112.902
-110.888
-108.254
-105.083
-101.447
-97.405
-93.043
-88.46
-83.753
-79.027
-74.354
-69.777
-65.324
-61.008
-56.821
-52.749
-48.764
-44.822
-40.894
-36.956
-32.986
-28.97
-24.887
-20.712
-16.425
-12.003
-7.428
-2.689
2.224
7.317
12.592
18.046
23.674
29.466
35.412
41.506
47.738
54.099
60.579
67.161
73.83
80.568
87.353
94.162
100.968
107.742
114.454
121.073
127.568
133.905
140.052
145.977
151.646
157.027
162.088
166.799
171.131
175.058
178.554
181.596
184.164
186.24
187.808
188.855
189.37
189.346
188.777
187.66
185.995
183.786
181.036
177.757
173.958
169.654
164.864
159.606
153.904
147.783
141.271
134.396
127.191
119.686
111.916
103.916
95.722
87.368
78.89
70.325
61.708
53.073
44.453
35.88
27.385
18.998
10.747
2.657
-5.247
-12.94
-20.403
-27.614
-34.556
-41.214
-47.572
-53.62
-59.348
-64.749
-69.816
-74.546
-78.939
-82.993
-86.713
-90.101
-93.164
-95.909
-98.345
-100.483
-102.334
-103.911
-105.229
-106.3
-107.14
-107.765
-108.188
-108.426
-108.492
-108.403
-108.173
-107.817
-107.348
-106.782
-106.132
-105.411
-104.633
-103.809
-102.952
-102.072
-101.179
-100.284
-99.394
-98.518
-97.663
-96.835
-96.041
-95.284
-94.568
-93.896
-93.271
-92.692
-92.16
-91.675
-91.235
-90.839
-90.485
-90.171
-89.895
-89.653
-89.444
-89.265
-89.113
-88.984
-88.876
-88.785
-88.709
-88.645
-88.589
-88.539
-88.493
-88.448
-88.403
-88.355
-88.303
-88.246
-88.182
-88.112
-88.034
-87.949
-87.858
-87.762
-87.663
-87.564
-87.466
-87.374
-87.291
-87.219
-87.165
-87.13
-87.12
-87.138
-87.188
-87.276
-87.405
-87.58
-87.805
-88.083
-88.419
-88.815
-89.274
-89.799
-90.392
-91.053
-91.783
-92.584
-93.454
-94.392
-95.396
-96.465
-97.594
-98.781
-100.021
-101.307
-102.634
-103.995
-105.383
-106.788
-108.202
-109.614
-111.014
-112.392
-113.735
-115.032
-116.271
-117.439
-118.524
-119.512
-120.392
-121.15
-121.774
-122.252
-122.573
-122.726
-122.702
-122.492
-122.09
-121.489
-120.686
-119.676
-118.459
-117.034
-115.403
-113.568
-111.535
-109.308
-106.895
-104.306
-101.552
-98.651
-95.622
-92.485
-89.263
-85.98
-82.662
-79.337
-76.034
-72.778
-69.593
-66.504
-63.537
-60.722
-58.093
-55.673
-53.49
-51.563
-49.912
-48.561
-47.528
-46.824
-46.456
-46.42
-46.723
-47.386
-48.443
-49.918
-51.821
-54.15
-56.897
-60.062
-63.633
-67.576
-71.825
-76.294
-80.912
-85.609
-90.332
-95.038
-99.628
-104
-108.078
-111.735
-114.889
-117.506
-119.473
-120.756
-121.453
-121.465
-120.712
-119.451
-117.851
-116.218
-115.085
-114.42
-114.055
-114.702
-117.26
-121.611
-127.229
-133.116
-137.517
-141.763
-149.386
-158.855
-166.666
-167.594
-152.692
-125.45
-98.278
-81.816
-90.231
-124.092
-169.991
-216.991
-251.369
-266.459
-266.289
-252.169
-225.23
-183.824
-120.794
-32.055
82.422
218.125
365.591
516.59
666.817
816.189
965.913
1111.67
1240.672
1331.743
1364.504
1329.623
1232.674
1095.567
942.955
791.352
648.176
510.845
377.729
253.925
146.91
63.635
6.126
-28.663
-45.786
-50.08
-45.837
-38.293
-32.527
-31.705
-37.152
-48.353
-63.562
-81.25
-99.876
-116.983
-130.181
-138.187
-140.578
-137.906
-131.367
-121.989
-110.803
-99.174
-88.389
-79.257
-72.255
-67.409
-64.481
-63.399
-63.922
-65.606
-68.155
-71.304
-74.601
-77.797
-80.987
-83.815
-86.183
-89.006
-90.559
-89.004
-86.565
-83.196
-84.035
-97.514
-117.547
-137.369
-146.476
-127.413
-87.125
-41.669
-5.314
1.357
-18.46
-46.709
-71.303
-79.756
-73.072
-61.355
-49.883
-39.133
-25.494
-9.697
6.401
17.162
15.557
7.445
-1.891
-8.113
-4.819
3.506
12.465
21.156
26.824
31.025
35.767
40.569
45.667
50.973
56.076
61.233
66.66
72.281
78.075
84.075
90.265
96.608
103.08
109.62
116.16
122.694
129.214
135.681
142.068
148.342
154.467
160.415
166.16
171.663
176.89
181.808
186.385
190.589
194.392
197.766
200.687
203.132
205.08
206.515
207.422
207.789
207.608
206.872
205.58
203.731
201.329
198.38
194.895
190.886
186.369
181.363
175.89
169.974
163.642
156.922
149.844
142.441
134.746
126.793
118.618
110.258
101.75
93.131
84.439
75.713
66.989
58.302
49.688
41.181
32.811
24.61
16.606
8.826
1.294
-5.967
-12.935
-19.593
-25.923
-31.913
-37.549
-42.824
-47.729
-52.262
-56.418
-60.197
-63.598
-66.626
-69.285
-71.579
-73.516
-75.099
-76.34
-77.259
-77.873
-78.203
-78.266
-78.067
-77.621
-76.97
-76.118
-75.047
-73.753
-72.21
-70.428
-68.501
-66.467
-64.289
-62.047
-59.874
-57.859
-56.154
-54.807
-53.602
-52.456
-51.531
-50.588
-49.02
-46.789
-44.047
-40.623
-37.477
-33.535
-24.531
-11.43
1.97
9.996
-0.649
-30.634
-66.04
-94.476
-95.238
-62.622
-17.696
23.845
43.515
31.851
7.096
-18.083
-34.959
-35.866
-30.054
-24.173
-19.071
-17.66
-17.609
-16.686
-15.925
-15.248
-14.678
-14.647
-14.908
-15.213
-15.604
-16.034
-16.363
-16.564
-16.702
-16.799
-16.889
-17.021
-17.171
-17.324
-17.504
-17.714
-17.95
-18.216
-18.506
-18.818
-19.16
-19.537
-19.953
-20.41
-20.913
-21.464
-22.066
-22.723
-23.438
-24.214
-25.052
-25.955
-26.925
-27.962
-29.067
-30.24
-31.48
-32.783
-34.149
-35.573
-37.051
-38.579
-40.149
-41.757
-43.396
-45.059
-46.74
-48.431
-50.124
-51.811
-53.483
-55.131
-56.745
-58.315
-59.829
-61.277
-62.648
-63.932
-65.115
-66.189
-67.14
-67.958
-68.632
-69.153
-69.511
-69.697
-69.702
-69.522
-69.15
-68.585
-67.824
-66.866
-65.712
-64.366
-62.831
-61.114
-59.219
-57.154
-54.929
-52.553
-50.038
-47.397
-44.644
-41.799
-38.881
-35.916
-32.925
-29.937
-26.978
-24.076
-21.259
-18.555
-15.987
-13.579
-11.355
-9.341
-7.566
-6.058
-4.839
-3.932
-3.355
-3.126
-3.261
-3.767
-4.642
-5.883
-7.491
-9.478
-11.87
-14.688
-17.937
-21.622
-25.73
-30.247
-35.15
-40.393
-45.901
-51.594
-57.391
-63.221
-69.034
-74.766
-80.338
-85.642
-90.545
-94.93
-98.709
-101.815
-104.207
-105.867
-106.812
-107.11
-106.885
-106.296
-105.52
-104.736
-104.14
-103.913
-104.218
-105.333
-107.617
-111.307
-116.461
-122.794
-129.665
-136.505
-142.834
-147.957
-151.002
-151.288
-148.577
-143.692
-138.45
-134.401
-132.649
-134.497
-140.934
-152.216
-168.129
-184.418
-194.933
-196.643
-185.175
-160.109
-122.168
-62.719
23.307
140.134
290.883
462.465
641.567
815.742
969.016
1096.361
1193.683
1255.293
1280.2
1265.31
1209.419
1116.397
992.43
846.172
687.637
526.158
370.203
227.873
105.896
8.762
-62.183
-108.344
-132.942
-140.277
-135.009
-122.449
-108.054
-96.43
-90.23
-90.148
-95.592
-105.194
-117.346
-130.085
-141.145
-148.497
-151.096
-148.989
-142.94
-134.09
-123.588
-112.542
-102.072
-93.198
-86.509
-82.135
-79.946
-79.638
-80.902
-83.49
-87.127
-91.493
-96.358
-101.529
-106.779
-111.912
-116.699
-120.878
-124.281
-126.81
-128.392
-129.025
-128.745
-127.599
-125.674
-123.078
-119.898
-116.222
-112.132
-107.7
-103.021
-98.197
-93.328
-88.515
-83.829
-79.307
-74.977
-70.84
-66.882
-63.078
-59.394
-55.78
-52.201
-48.629
-45.034
-41.395
-37.688
-33.884
-29.956
-25.879
-21.629
-17.192
-12.552
-7.7
-2.63
2.66
8.166
13.88
19.796
25.906
32.202
38.673
45.308
52.09
59.002
66.024
73.133
80.303
87.505
94.707
101.875
108.975
115.97
122.825
129.502
135.962
142.169
148.085
153.674
158.901
163.731
168.132
172.072
175.523
178.458
180.854
182.689
183.946
184.611
184.673
184.126
182.965
181.191
178.807
175.822
172.244
168.089
163.375
158.121
152.354
146.099
139.388
132.253
124.728
116.851
108.66
100.194
91.494
82.602
73.559
64.408
55.19
45.947
36.72
27.55
18.474
9.526
0.741
-7.84
-16.183
-24.257
-32.035
-39.501
-46.632
-53.392
-59.773
-65.793
-71.463
-76.804
-81.814
-86.444
-90.688
-94.596
-98.144
-101.232
-103.791
-105.741
-107.083
-107.965
-108.445
-108.4
-107.985
-107.734
-107.793
-108.023
-108.512
-108.748
-109.706
-114.621
-122.951
-131.714
-136.187
-127.275
-105.201
-79.217
-58.423
-55.749
-72.506
-96.394
-117.871
-126.781
-120.973
-109.63
-98.512
-91.409
-89.639
-89.474
-89.131
-88.759
-88.211
-88.039
-88.405
-88.797
-89.047
-89.238
-89.351
-89.357
-89.268
-89.098
-88.887
-88.715
-88.605
-88.509
-88.409
-88.304
-88.187
-88.057
-87.909
-87.726
-87.504
-87.245
-86.95
-86.62
-86.256
-85.857
-85.424
-84.957
-84.46
-83.934
-83.381
-82.804
-82.206
-81.591
-80.961
-80.321
-79.676
-79.03
-78.388
-77.755
-77.136
-76.535
-75.959
-75.411
-74.898
-74.424
-73.995
-73.616
-73.293
-73.029
-72.83
-72.699
-72.639
-72.653
-72.742
-72.907
-73.148
-73.465
-73.856
-74.32
-74.857
-75.462
-76.134
-76.868
-77.663
-78.511
-79.409
-80.351
-81.329
-82.338
-83.368
-84.413
-85.463
-86.508
-87.54
-88.549
-89.522
-90.451
-91.323
-92.126
-92.848
-93.475
-93.998
-94.402
-94.678
-94.814
-94.799
-94.626
-94.287
-93.773
-93.08
-92.202
-91.136
-89.878
-88.429
-86.787
-84.955
-82.935
-80.732
-78.352
-75.802
-73.092
-70.235
-67.247
-64.146
-60.952
-57.685
-54.37
-51.031
-47.693
-44.381
-41.118
-37.926
-34.834
-31.865
-29.05
-26.42
-24.003
-21.828
-19.918
-18.298
-16.992
-16.017
-15.381
-15.091
-15.153
-15.588
-16.427
-17.699
-19.416
-21.585
-24.202
-27.252
-30.715
-34.549
-38.685
-43.049
-47.568
-52.178
-56.835
-61.489
-66.073
-70.487
-74.604
-78.313
-81.529
-84.192
-86.267
-87.748
-88.647
-89.052
-89.111
-88.951
-88.726
-88.577
-88.624
-89.04
-90.003
-91.695
-94.386
-98.411
-103.921
-110.811
-118.694
-126.883
-134.718
-141.666
-147.025
-149.805
-149.351
-145.805
-140.12
-134.062
-129.301
-126.543
-126.272
-129.456
-136.412
-145.97
-155.327
-159.846
-154.687
-136.352
-101.637
-46.693
31.991
133.946
254.074
386.016
522.35
662.591
812.676
969.225
1122.5
1252.024
1326.427
1330.594
1264.843
1143.863
999.289
853.238
716.087
590.779
470.329
353.628
245.967
152.944
80.352
28.728
-5.586
-26.387
-37.6
-42.862
-45.529
-49.186
-56.019
-66.384
-79.783
-95.099
-111.149
-126.822
-140.547
-150.52
-155.877
-156.61
-153.199
-146.679
-138.019
-128.058
-117.925
-108.749
-101.203
-95.627
-92.065
-90.295
-90.164
-91.535
-94.162
-97.776
-102.119
-106.987
-112.239
-117.703
-123.16
-128.357
-133.014
-136.934
-140.014
-142.18
-143.411
-143.73
-143.166
-141.795
-139.723
-137.04
-133.834
-130.188
-126.164
-121.848
-117.339
-112.737
-108.15
-103.655
-99.289
-95.078
-91.029
-87.129
-83.362
-79.697
-76.085
-72.488
-68.879
-65.233
-61.533
-57.757
-53.879
-49.873
-45.715
-41.384
-36.867
-32.151
-27.228
-22.095
-16.751
-11.201
-5.458
0.47
6.575
12.845
19.271
25.839
32.53
39.327
46.207
53.148
60.12
67.094
74.037
80.915
87.693
94.338
100.812
107.082
113.112
118.868
124.315
129.42
134.152
138.481
142.378
145.816
148.772
151.222
153.15
154.537
155.371
155.641
155.341
154.466
153.015
150.99
148.398
145.248
141.55
137.323
132.583
127.354
121.66
115.53
108.993
102.084
94.834
87.28
79.458
71.407
63.163
54.766
46.254
37.667
29.041
20.416
11.828
3.314
-5.093
-13.358
-21.451
-29.342
-37.002
-44.407
-51.532
-58.356
-64.86
-71.027
-76.844
-82.297
-87.379
-92.082
-96.403
-100.34
-103.894
-107.068
-109.865
-112.293
-114.359
-116.072
-117.444
-118.485
-119.21
-119.631
-119.763
-119.623
-119.226
-118.588
-117.727
-116.66
-115.402
-113.972
-112.385
-110.658
-108.807
-106.848
-104.794
-102.661
-100.462
-98.208
-95.912
-93.583
-91.231
-88.863
-86.486
-84.108
-81.733
-79.366
-77.011
-74.671
-72.35
-70.05
-67.774
-65.522
-63.298
-61.1
-58.931
-56.791
-54.679
-52.596
-50.542
-48.516
-46.516
-44.544
-42.596
-40.673
-38.773
-36.894
-35.036
-33.198
-31.379
-29.58
-27.8
-26.04
-24.301
-22.586
-20.896
-19.232
-17.598
-15.995
-14.426
-12.893
-11.399
-9.946
-8.536
-7.171
-5.854
-4.585
-3.367
-2.202
-1.091
-0.035
0.965
1.906
2.787
3.607
4.365
5.058
5.684
6.243
6.732
7.15
7.497
7.77
7.971
8.098
8.153
8.136
8.048
7.889
7.663
7.369
7.011
6.59
6.109
5.57
4.975
4.328
3.633
2.892
2.11
1.289
0.435
-0.449
-1.359
-2.289
-3.236
-4.194
-5.157
-6.12
-7.077
-8.022
-8.947
-9.846
-10.711
-11.535
-12.311
-13.03
-13.685
-14.269
-14.773
-15.19
-15.513
-15.732
-15.841
-15.834
-15.703
-15.442
-15.046
-14.511
-13.831
-13.003
-12.025
-10.894
-9.612
-8.178
-6.594
-4.862
-2.985
-0.97
1.178
3.453
5.849
8.361
10.977
13.68
16.449
19.261
22.094
24.924
27.726
30.471
33.133
35.688
38.123
40.422
42.566
44.53
46.278
47.776
49
49.936
50.577
50.913
50.933
50.631
50.016
49.097
47.871
46.32
44.391
42.04
39.242
35.993
32.319
28.261
23.844
19.093
14.031
8.672
3.073
-2.672
-8.476
-14.252
-19.929
-25.447
-30.632
-35.214
-39.077
-42.347
-45.405
-48.704
-52.392
-56.206
-59.851
-63.391
-66.849
-69.91
-71.737
-71.258
-68.154
-63.407
-58.673
-54.964
-52.861
-52.839
-55.626
-62.459
-73.79
-88.219
-103.112
-116.508
-127.372
-135.637
-141.782
-145.576
-146.874
-146.669
-146.831
-148.531
-151.655
-154.25
-152.712
-143.592
-123.759
-89.864
-38.295
33.822
128.005
243.452
376.56
522.402
675.23
828.147
972.936
1101.155
1204.562
1275.839
1310.383
1305.604
1260.252
1177.857
1065.087
927.265
773.093
608.503
437.903
275.669
133.244
21.59
-49.614
-87.825
-101.832
-100.214
-94.482
-85.863
-75.728
-68.076
-63.096
-63.363
-70.372
-82.141
-97.124
-113.051
-127.084
-137.401
-143.116
-144.161
-141.307
-135.799
-128.858
-121.557
-114.967
-110.009
-107.155
-106.539
-108.034
-111.284
-115.941
-121.722
-128.31
-135.391
-142.743
-150.134
-157.316
-164.066
-170.133
-175.317
-179.513
-182.652
-184.707
-185.687
-185.638
-184.637
-182.804
-180.244
-177.053
-173.32
-169.126
-164.573
-159.781
-154.87
-149.957
-145.128
-140.436
-135.919
-131.594
-127.466
-123.519
-119.724
-116.037
-112.423
-108.858
-105.318
-101.785
-98.231
-94.628
-90.946
-87.158
-83.239
-79.17
-74.931
-70.507
-65.888
-61.066
-56.038
-50.806
-45.369
-39.726
-33.878
-27.825
-21.573
-15.129
-8.501
-1.703
5.251
12.341
19.545
26.837
34.191
41.576
48.962
56.315
63.603
70.789
77.839
84.717
91.386
97.811
103.958
109.792
115.282
120.395
125.102
129.376
133.192
136.527
139.361
141.676
143.458
144.696
145.382
145.511
145.083
144.098
142.563
140.486
137.879
134.758
131.14
127.049
122.507
117.541
112.182
106.46
100.408
94.061
87.455
80.625
73.61
66.448
59.174
51.828
44.445
37.062
29.714
22.435
15.256
8.21
1.325
-5.371
-11.854
-18.1
-24.089
-29.803
-35.226
-40.344
-45.146
-49.623
-53.769
-57.58
-61.054
-64.19
-66.991
-69.46
-71.605
-73.433
-74.953
-76.178
-77.12
-77.792
-78.209
-78.388
-78.345
-78.096
-77.66
-77.053
-76.294
-75.4
-74.389
-73.279
-72.087
-70.828
-69.518
-68.173
-66.806
-65.43
-64.059
-62.702
-61.371
-60.076
-58.826
-57.628
-56.492
-55.423
-54.427
-53.51
-52.675
-51.926
-51.266
-50.696
-50.217
-49.829
-49.532
-49.325
-49.206
-49.174
-49.225
-49.356
-49.565
-49.847
-50.197
-50.612
-51.088
-51.62
-52.204
-52.837
-53.514
-54.231
-54.985
-55.773
-56.59
-57.432
-58.296
-59.179
-60.075
-60.981
-61.894
-62.809
-63.723
-64.633
-65.535
-66.425
-67.302
-68.162
-69.003
-69.822
-70.619
-71.391
-72.139
-72.861
-73.559
-74.231
-74.88
-75.505
-76.108
-76.689
-77.249
-77.788
-78.307
-78.808
-79.292
-79.759
-80.211
-80.65
-81.078
-81.496
-81.907
-82.313
-82.715
-83.117
-83.52
-83.928
-84.342
-84.765
-85.201
-85.65
-86.115
-86.596
-87.094
-87.608
-88.138
-88.68
-89.234
-89.794
-90.359
-90.924
-91.485
-92.038
-92.577
-93.099
-93.596
-94.063
-94.493
-94.878
-95.212
-95.486
-95.691
-95.821
-95.867
-95.821
-95.674
-95.418
-95.042
-94.539
-93.9
-93.115
-92.174
-91.07
-89.794
-88.343
-86.711
-84.894
-82.89
-80.699
-78.321
-75.759
-73.017
-70.098
-67.009
-63.757
-60.351
-56.801
-53.12
-49.323
-45.426
-41.451
-37.419
-33.352
-29.277
-25.217
-21.198
-17.246
-13.386
-9.641
-6.035
-2.59
0.668
3.708
6.503
9.029
11.263
13.184
14.773
16.011
16.889
17.408
17.567
17.363
16.783
15.8
14.394
12.56
10.298
7.617
4.533
1.069
-2.735
-6.805
-11.071
-15.463
-19.923
-24.42
-28.908
-33.314
-37.542
-41.475
-45.006
-48.067
-50.603
-52.564
-53.924
-54.693
-54.934
-54.766
-54.325
-53.731
-53.1
-52.556
-52.233
-52.28
-52.934
-54.505
-57.201
-61.046
-65.808
-70.991
-76.033
-80.402
-83.368
-83.974
-81.499
-75.766
-67.502
-58.313
-49.978
-44.03
-41.9
-45.014
-54.278
-69.413
-88.019
-105.849
-117.979
-119.125
-104.031
-67.556
-4.939
84.946
198.351
330.18
475.147
631.74
800.391
973.975
1136.624
1263.259
1329.524
1325.022
1254.738
1138.872
1000.305
853.713
706.636
559.825
414.744
278.468
159.711
65.921
-0.011
-39.98
-58.432
-61.137
-53.395
-40.858
-29.324
-22.396
-21.794
-27.828
-39.215
-54.025
-70.436
-85.965
-97.985
-105.25
-107.382
-104.686
-98.307
-89.458
-79.264
-69.078
-60.182
-53.254
-48.62
-46.316
-46.083
-47.718
-51.016
-55.646
-61.263
-67.572
-74.342
-81.369
-88.448
-95.304
-101.635
-107.218
-111.912
-115.646
-118.388
-120.122
-120.859
-120.651
-119.595
-117.787
-115.316
-112.27
-108.725
-104.781
-100.554
-96.165
-91.733
-87.342
-83.047
-78.876
-74.846
-70.956
-67.194
-63.534
-59.933
-56.358
-52.786
-49.197
-45.574
-41.892
-38.126
-34.247
-30.232
-26.06
-21.716
-17.186
-12.461
-7.537
-2.413
2.908
8.419
14.112
19.985
26.03
32.241
38.608
45.122
51.767
58.529
65.39
72.327
79.315
86.327
93.333
100.303
107.205
114.004
120.668
127.162
133.45
139.5
145.276
150.744
155.872
160.628
164.982
168.906
172.374
175.361
177.846
179.811
181.241
182.123
182.448
182.209
181.404
180.032
178.096
175.602
172.559
168.979
164.877
160.272
155.186
149.644
143.673
137.303
130.566
123.495
116.128
108.499
100.647
92.611
84.428
76.139
67.782
59.396
51.02
42.69
34.442
26.31
18.327
10.522
2.924
-4.442
-11.553
-18.388
-24.928
-31.157
-37.062
-42.63
-47.854
-52.727
-57.243
-61.403
-65.206
-68.657
-71.76
-74.523
-76.955
-79.068
-80.875
-82.39
-83.63
-84.611
-85.351
-85.87
-86.187
-86.324
-86.301
-86.138
-85.857
-85.478
-85.02
-84.502
-83.942
-83.357
-82.763
-82.174
-81.604
-81.066
-80.571
-80.129
-79.75
-79.443
-79.213
-79.066
-79.007
-79.038
-79.163
-79.38
-79.69
-80.092
-80.582
-81.158
-81.816
-82.549
-83.352
-84.217
-85.138
-86.106
-87.113
-88.148
-89.203
-90.27
-91.338
-92.398
-93.444
-94.466
-95.457
-96.409
-97.317
-98.173
-98.972
-99.708
-100.376
-100.972
-101.491
-101.93
-102.287
-102.559
-102.746
-102.846
-102.859
-102.787
-102.631
-102.393
-102.076
-101.683
-101.218
-100.686
-100.092
-99.443
-98.744
-98.003
-97.227
-96.423
-95.598
-94.76
-93.917
-93.074
-92.238
-91.417
-90.615
-89.841
-89.099
-88.395
-87.736
-87.127
-86.573
-86.08
-85.65
-85.288
-84.997
-84.779
-84.636
-84.567
-84.572
-84.652
-84.803
-85.025
-85.313
-85.664
-86.073
-86.533
-87.038
-87.58
-88.152
-88.745
-89.35
-89.958
-90.559
-91.143
-91.701
-92.223
-92.698
-93.117
-93.468
-93.741
-93.926
-94.011
-93.985
-93.838
-93.561
-93.144
-92.578
-91.854
-90.966
-89.908
-88.675
-87.262
-85.666
-83.883
-81.915
-79.762
-77.427
-74.913
-72.226
-69.371
-66.359
-63.196
-59.895
-56.469
-52.933
-49.304
-45.604
-41.854
-38.077
-34.299
-30.543
-26.833
-23.192
-19.64
-16.204
-12.908
-9.776
-6.835
-4.114
-1.639
0.562
2.465
4.053
5.31
6.228
6.806
7.037
6.916
6.422
5.529
4.225
2.505
0.367
-2.18
-5.114
-8.407
-11.998
-15.814
-19.793
-23.875
-28.013
-32.173
-36.306
-40.35
-44.206
-47.764
-50.945
-53.711
-56.08
-58.049
-59.594
-60.724
-61.501
-62.075
-62.674
-63.348
-63.896
-64.379
-65.112
-66.465
-69.074
-73.2
-78.474
-85.035
-93.534
-103.424
-113.28
-121.708
-126.34
-127.393
-128.443
-128.851
-126
-116.586
-93.702
-61.1
-31.534
-15.842
-27.487
-66.724
-118.341
-168.327
-200.149
-204.796
-185.794
-144.639
-81.942
2.729
112.679
246.594
398.048
558.896
720.311
873.253
1008.723
1118.533
1195.751
1236.11
1238.562
1203.634
1133.191
1032.176
908.088
769.35
624.917
482.431
348.124
228.532
129.079
51.981
-3.257
-39.028
-59.104
-66.94
-65.935
-60.934
-56.639
-55.816
-59.659
-67.867
-79.081
-92.165
-105.981
-118.493
-127.634
-132.336
-132.285
-128.037
-120.785
-111.567
-101.36
-91.323
-82.529
-75.635
-70.956
-68.475
-67.928
-69.084
-71.717
-75.546
-80.276
-85.651
-91.474
-97.546
-103.647
-109.509
-114.837
-119.417
-123.114
-125.852
-127.594
-128.335
-128.107
-126.985
-125.082
-122.496
-119.314
-115.617
-111.475
-106.985
-102.257
-97.404
-92.543
-87.756
-83.095
-78.593
-74.266
-70.112
-66.119
-62.254
-58.472
-54.74
-51.032
-47.328
-43.612
-39.862
-36.052
-32.16
-28.161
-24.036
-19.771
-15.352
-10.769
-6.017
-1.095
3.997
9.25
14.659
20.221
25.931
31.782
37.768
43.875
50.093
56.407
62.798
69.246
75.728
82.216
88.684
95.102
101.442
107.671
113.761
119.679
125.395
130.878
136.097
141.025
145.633
149.894
153.783
157.275
160.348
162.981
165.158
166.861
168.077
168.797
169.011
168.713
167.902
166.576
164.74
162.399
159.561
156.239
152.446
148.201
143.524
138.439
132.97
127.144
120.991
114.541
107.825
100.875
93.724
86.404
78.95
71.394
63.769
56.107
48.441
40.802
33.22
25.722
18.338
11.093
4.011
-2.885
-9.573
-16.034
-22.252
-28.209
-33.894
-39.293
-44.398
-49.201
-53.697
-57.882
-61.755
-65.316
-68.569
-71.517
-74.164
-76.519
-78.588
-80.38
-81.906
-83.177
-84.203
-84.996
-85.569
-85.936
-86.109
-86.101
-85.925
-85.596
-85.126
-84.527
-83.813
-82.995
-82.086
-81.097
-80.038
-78.92
-77.753
-76.547
-75.309
-74.049
-72.772
-71.488
-70.2
-68.915
-67.638
-66.374
-65.126
-63.898
-62.692
-61.512
-60.361
-59.24
-58.151
-57.096
-56.076
-55.093
-54.147
-53.241
-52.374
-51.547
-50.762
-50.019
-49.318
-48.66
-48.047
-47.479
-46.958
-46.483
-46.057
-45.679
-45.352
-45.076
-44.852
-44.68
-44.563
-44.5
-44.493
-44.543
-44.65
-44.815
-45.04
-45.323
-45.666
-46.069
-46.53
-47.05
-47.628
-48.263
-48.953
-49.698
-50.496
-51.346
-52.247
-53.196
-54.193
-55.235
-56.319
-57.445
-58.607
-59.805
-61.035
-62.293
-63.578
-64.885
-66.213
-67.557
-68.914
-70.281
-71.655
-73.03
-74.404
-75.773
-77.131
-78.475
-79.803
-81.109
-82.392
-83.647
-84.873
-86.066
-87.223
-88.342
-89.418
-90.449
-91.43
-92.357
-93.226
-94.033
-94.773
-95.441
-96.033
-96.544
-96.97
-97.305
-97.545
-97.684
-97.717
-97.639
-97.444
-97.13
-96.69
-96.123
-95.423
-94.59
-93.621
-92.513
-91.264
-89.873
-88.338
-86.658
-84.832
-82.861
-80.745
-78.488
-76.094
-73.567
-70.914
-68.143
-65.265
-62.294
-59.245
-56.132
-52.97
-49.78
-46.589
-43.423
-40.305
-37.256
-34.289
-31.43
-28.718
-26.169
-23.775
-21.539
-19.46
-17.563
-15.92
-14.561
-13.453
-12.647
-12.264
-12.397
-13.152
-14.562
-16.507
-18.961
-22.084
-25.71
-29.297
-32.734
-36.123
-39.32
-42.853
-45.49
-43.873
-38.844
-33.295
-32.305
-45.221
-70.897
-99.93
-122.81
-126.069
-109.47
-85.547
-63.956
-55.41
-61.418
-72.733
-83.886
-90.964
-93.043
-94.093
-95.907
-98.537
-102.264
-106.591
-111.484
-117.665
-125.312
-134.14
-143.733
-153.219
-161.569
-168.041
-171.823
-171.941
-168.051
-160.313
-149.437
-137.332
-125.807
-115.909
-108.703
-104.933
-104.309
-105.721
-106.658
-102.456
-88.585
-61.644
-18.031
45.19
129.643
235.849
360.15
494.183
630.152
762.248
888.968
1012.266
1128.104
1224.298
1281.138
1279.03
1211.432
1087.71
930.984
765.547
606.727
460.614
325.538
201.588
93.454
6.126
-56.29
-93.487
-109.384
-109.296
-98.73
-83.851
-70.26
-61.408
-59.054
-63.392
-73.131
-86.528
-101.784
-116.305
-127.514
-134.142
-135.774
-132.864
-126.589
-118.092
-108.471
-99.009
-90.874
-84.707
-80.771
-79.003
-79.103
-80.833
-83.962
-88.208
-93.265
-98.882
-104.867
-111.023
-117.165
-123.061
-128.437
-133.103
-136.943
-139.892
-141.939
-143.1
-143.406
-142.923
-141.749
-139.97
-137.668
-134.923
-131.802
-128.395
-124.805
-121.138
-117.505
-113.985
-110.624
-107.449
-104.467
-101.67
-99.042
-96.55
-94.148
-91.8
-89.48
-87.162
-84.829
-82.458
-80.02
-77.488
-74.837
-72.044
-69.093
-65.971
-62.666
-59.173
-55.489
-51.616
-47.563
-43.334
-38.935
-34.37
-29.646
-24.771
-19.758
-14.618
-9.366
-4.019
1.401
6.872
12.368
17.861
23.323
28.726
34.04
39.234
44.277
49.141
53.795
58.21
62.359
66.215
69.753
72.949
75.781
78.229
80.276
81.906
83.107
83.867
84.18
84.04
83.444
82.393
80.888
78.935
76.542
73.718
70.476
66.832
62.803
58.41
53.675
48.623
43.28
37.674
31.834
25.79
19.572
13.21
6.736
0.181
-6.425
-13.052
-19.67
-26.251
-32.767
-39.193
-45.504
-51.677
-57.689
-63.523
-69.158
-74.58
-79.774
-84.727
-89.427
-93.867
-98.039
-101.937
-105.558
-108.901
-111.965
-114.753
-117.267
-119.513
-121.497
-123.227
-124.712
-125.961
-126.986
-127.798
-128.41
-128.834
-129.083
-129.171
-129.111
-128.915
-128.597
-128.17
-127.646
-127.035
-126.35
-125.601
-124.796
-123.947
-123.06
-122.143
-121.203
-120.247
-119.278
-118.303
-117.324
-116.345
-115.367
-114.393
-113.422
-112.456
-111.493
-110.533
-109.574
-108.614
-107.65
-106.68
-105.7
-104.706
-103.694
-102.662
-101.604
-100.517
-99.398
-98.242
-97.048
-95.811
-94.531
-93.204
-91.829
-90.406
-88.932
-87.408
-85.833
-84.209
-82.536
-80.815
-79.049
-77.239
-75.388
-73.499
-71.574
-69.617
-67.632
-65.621
-63.589
-61.541
-59.48
-57.412
-55.342
-53.275
-51.217
-49.174
-47.15
-45.153
-43.188
-41.259
-39.373
-37.535
-35.75
-34.022
-32.357
-30.758
-29.231
-27.778
-26.404
-25.11
-23.9
-22.775
-21.738
-20.789
-19.931
-19.163
-18.487
-17.904
-17.415
-17.019
-16.717
-16.509
-16.393
-16.368
-16.432
-16.583
-16.818
-17.134
-17.527
-17.993
-18.528
-19.126
-19.783
-20.492
-21.246
-22.038
-22.861
-23.708
-24.568
-25.436
-26.301
-27.156
-27.994
-28.805
-29.58
-30.313
-30.992
-31.609
-32.153
-32.615
-32.983
-33.247
-33.396
-33.421
-33.31
-33.053
-32.643
-32.067
-31.318
-30.387
-29.265
-27.944
-26.418
-24.682
-22.729
-20.558
-18.168
-15.558
-12.731
-9.688
-6.432
-2.968
0.699
4.562
8.614
12.844
17.242
21.797
26.493
31.311
36.23
41.227
46.277
51.358
56.441
61.492
66.478
71.366
76.125
80.727
85.141
89.335
93.275
96.93
100.276
103.291
105.955
108.245
110.135
111.6
112.632
113.236
113.421
113.19
112.527
111.407
109.814
107.75
105.221
102.231
98.777
94.86
90.513
85.803
80.824
75.678
70.43
65.113
59.736
54.327
48.983
43.867
39.149
34.946
31.305
28.239
25.826
24.232
23.473
23.27
23.064
22.254
20.556
18.123
15.235
11.771
7.498
2.618
-2.018
-5.096
-5.611
-3.686
-0.178
4.669
11.018
18.615
26.475
32.464
34.151
30.713
22.575
9.784
-7.515
-28.672
-52.288
-75.003
-92.139
-99.942
-95.139
-74.046
-33.799
27.86
112.676
220.421
348.881
495.162
652.731
811.596
963.883
1103.21
1228.973
1345.24
1448.512
1528.401
1567.469
1546.013
1457.77
1309.374
1118.009
908.035
701.547
518.869
374.629
274.5
214.741
180.217
156.324
134.502
112.41
96.053
88.409
86.466
86.236
82.411
72.512
58.095
41.359
24.337
9.332
-1.644
-7.69
-8.451
-4.295
3.504
13.716
25.269
36.78
46.949
55.038
60.598
63.568
64.233
62.779
59.414
54.472
48.293
41.213
33.509
25.379
17.043
8.775
0.87
-6.374
-12.753
-18.171
-22.561
-25.902
-28.219
-29.545
-29.969
-29.614
-28.584
-26.986
-24.923
-22.483
-19.777
-16.929
-14.051
-11.259
-8.629
-6.197
-3.985
-1.999
-0.222
1.367
2.806
4.146
5.425
6.677
7.932
9.217
10.562
12.003
13.571
15.299
17.213
19.333
21.675
24.253
27.076
30.147
33.466
37.029
40.832
44.871
49.142
53.637
58.347
63.258
68.354
73.617
79.024
84.55
90.165
95.837
101.531
107.212
112.843
118.384
123.797
129.041
134.075
138.858
143.351
147.514
151.309
154.699
157.648
160.125
162.099
163.543
164.434
164.75
164.475
163.595
162.1
159.982
157.241
153.875
149.891
145.297
140.105
134.33
127.992
121.114
113.724
105.85
97.527
88.789
79.674
70.224
60.479
50.483
40.281
29.918
19.44
8.894
-1.676
-12.223
-22.704
-33.076
-43.299
-53.332
-63.141
-72.69
-81.947
-90.884
-99.475
-107.695
-115.525
-122.946
-129.943
-136.506
-142.625
-148.294
-153.511
-158.274
-162.588
-166.457
-169.89
-172.897
-175.492
-177.69
-179.51
-180.969
-182.09
-182.896
-183.409
-183.657
-183.662
-183.453
-183.056
-182.495
-181.798
-180.989
-180.093
-179.133
-178.132
-177.113
-176.094
-175.095
-174.135
-173.229
-172.393
-171.64
-170.984
-170.434
-170
-169.689
-169.509
-169.462
-169.553
-169.783
-170.15
-170.655
-171.293
-172.061
-172.952
-173.961
-175.08
-176.299
-177.611
-179.005
-180.471
-182
-183.579
-185.201
-186.853
-188.527
-190.212
-191.898
-193.578
-195.24
-196.878
-198.482
-200.045
-201.559
-203.017
-204.412
-205.739
-206.992
-208.167
-209.26
-210.267
-211.186
-212.015
-212.755
-213.403
-213.962
-214.431
-214.814
-215.112
-215.327
-215.464
-215.524
-215.513
-215.432
-215.285
-215.076
-214.808
-214.483
-214.104
-213.674
-213.196
-212.67
-212.1
-211.487
-210.832
-210.138
-209.406
-208.637
-207.831
-206.989
-206.111
-205.197
-204.244
-203.251
-202.215
-201.132
-199.998
-198.806
-197.552
-196.23
-194.833
-193.354
-191.785
-190.119
-188.348
-186.465
-184.462
-182.332
-180.068
-177.662
-175.109
-172.405
-169.546
-166.527
-163.346
-159.999
-156.485
-152.804
-148.955
-144.94
-140.76
-136.42
-131.923
-127.275
-122.487
-117.571
-112.545
-107.424
-102.227
-96.975
-91.695
-86.414
-81.161
-75.964
-70.847
-65.835
-60.955
-56.239
-51.718
-47.419
-43.369
-39.588
-36.101
-32.936
-30.121
-27.678
-25.614
-23.925
-22.613
-21.696
-21.21
-21.182
-21.63
-22.556
-23.959
-25.844
-28.214
-31.055
-34.312
-37.911
-41.767
-45.8
-49.973
-54.271
-58.659
-63.079
-67.398
-71.451
-75.123
-78.355
-81.118
-83.425
-85.219
-86.364
-87.005
-87.539
-88.372
-89.965
-92.445
-95.471
-98.996
-103.486
-109.077
-115.48
-122.135
-127.77
-131.716
-134.543
-136.396
-136.699
-135.078
-131.394
-126.264
-122.061
-120.758
-122.806
-128.893
-139.694
-155.595
-176.864
-202.152
-227.36
-247.798
-259.028
-255.795
-233.659
-188.534
-116.101
-16.333
107.698
253.944
416.657
591.825
775.61
952.764
1109.432
1231.068
1303.223
1328.233
1310.167
1253.796
1168.639
1056.557
921.586
772.367
615.827
462.131
321.014
198.572
99.758
26.123
-23.908
-53.04
-65.141
-64.703
-56.555
-45.778
-37.103
-33.36
-35.379
-42.867
-54.641
-69.166
-84.72
-99.068
-109.899
-116.037
-117.365
-114.375
-108.107
-99.588
-89.763
-79.856
-71.088
-64.154
-59.325
-56.548
-55.524
-56.031
-57.897
-60.857
-64.606
-68.882
-73.473
-78.225
-82.994
-87.588
-91.778
-95.32
-98.045
-99.867
-100.744
-100.69
-99.738
-97.93
-95.345
-92.082
-88.232
-83.888
-79.131
-74.032
-68.675
-63.154
-57.567
-52.017
-46.577
-41.284
-36.158
-31.203
-26.407
-21.754
-17.217
-12.751
-8.323
-3.906
0.523
4.978
9.479
14.051
18.718
23.501
28.419
33.484
38.704
44.088
49.636
55.35
61.222
67.241
73.4
79.689
86.099
92.619
99.237
105.938
112.707
119.523
126.36
133.193
139.992
146.729
153.378
159.898
166.248
172.41
178.363
184.084
189.558
194.733
199.549
203.998
208.077
211.698
214.79
217.295
219.134
220.337
220.984
221.009
220.311
219.129
217.75
216
213.9
211.508
208.212
205.704
205.637
205.688
205.17
199.812
184.496
164.943
144.974
130.268
128.616
133.191
138.21
139.722
131.178
117.322
102.962
89.194
78.961
70.607
61.992
53.559
45.059
36.664
28.838
21.315
13.885
6.643
-0.379
-7.193
-13.781
-20.116
-26.181
-31.928
-37.303
-42.323
-47.009
-51.354
-55.361
-59.037
-62.382
-65.411
-68.139
-70.572
-72.72
-74.597
-76.213
-77.583
-78.723
-79.647
-80.371
-80.91
-81.278
-81.49
-81.562
-81.506
-81.338
-81.07
-80.715
-80.286
-79.793
-79.248
-78.661
-78.043
-77.402
-76.747
-76.084
-75.423
-74.769
-74.128
-73.505
-72.906
-72.336
-71.797
-71.294
-70.831
-70.409
-70.03
-69.698
-69.413
-69.177
-68.991
-68.856
-68.774
-68.744
-68.77
-68.851
-68.99
-69.187
-69.445
-69.764
-70.146
-70.593
-71.106
-71.687
-72.338
-73.06
-73.856
-74.725
-75.671
-76.693
-77.791
-78.967
-80.218
-81.545
-82.947
-84.42
-85.965
-87.578
-89.256
-90.998
-92.799
-94.655
-96.562
-98.514
-100.506
-102.531
-104.581
-106.649
-108.724
-110.798
-112.86
-114.9
-116.907
-118.869
-120.774
-122.61
-124.363
-126.02
-127.568
-128.993
-130.282
-131.423
-132.404
-133.212
-133.839
-134.273
-134.505
-134.528
-134.335
-133.919
-133.275
-132.399
-131.288
-129.942
-128.36
-126.545
-124.501
-122.234
-119.756
-117.079
-114.221
-111.2
-108.034
-104.747
-101.364
-97.908
-94.404
-90.874
-87.34
-83.828
-80.365
-76.982
-73.709
-70.573
-67.602
-64.823
-62.26
-59.938
-57.876
-56.081
-54.564
-53.339
-52.429
-51.875
-51.71
-51.958
-52.636
-53.747
-55.291
-57.258
-59.614
-62.3
-65.249
-68.394
-71.678
-75.063
-78.5
-81.923
-85.238
-88.321
-91.065
-93.38
-95.204
-96.496
-97.236
-97.435
-97.164
-96.539
-95.711
-94.856
-94.127
-93.695
-93.742
-94.425
-96.011
-98.856
-103.185
-109.054
-116.235
-124.143
-132.139
-139.659
-145.941
-150.069
-151.371
-149.591
-145.407
-140.454
-136.539
-135.215
-137.742
-145.126
-157.754
-174.998
-194.412
-211.671
-221.566
-218.803
-198.664
-156.904
-90.246
3.013
122.096
263.25
420.483
586.227
751.958
908.339
1046.146
1156.298
1230.959
1265.368
1256.704
1206.232
1120.144
1003.717
862.206
700.526
519.741
330.336
151.223
-0.036
-104.243
-158.446
-176.64
-172.336
-161.508
-151.739
-139.654
-125.721
-111.245
-98.195
-91.591
-92.706
-99.814
-111.133
-123.756
-134.926
-142.907
-146.725
-146.32
-142.463
-136.377
-129.173
-121.836
-115.39
-110.694
-108.204
-108.021
-109.939
-113.537
-118.437
-124.336
-130.894
-137.784
-144.72
-151.424
-157.65
-163.188
-167.871
-171.579
-174.246
-175.844
-176.378
-175.888
-174.45
-172.17
-169.155
-165.505
-161.311
-156.66
-151.658
-146.421
-141.071
-135.727
-130.473
-125.362
-120.435
-115.71
-111.191
-106.871
-102.718
-98.69
-94.753
-90.882
-87.051
-83.241
-79.425
-75.568
-71.64
-67.609
-63.447
-59.13
-54.636
-49.945
-45.042
-39.916
-34.56
-28.972
-23.148
-17.082
-10.771
-4.213
2.591
9.637
16.92
24.429
32.151
40.069
48.159
56.397
64.755
73.202
81.706
90.231
98.742
107.2
115.567
123.801
131.861
139.706
147.294
154.583
161.532
168.101
174.251
179.945
185.15
189.832
193.963
197.516
200.468
202.797
204.486
205.522
205.893
205.595
204.625
202.983
200.677
197.716
194.116
189.894
185.073
179.678
173.737
167.281
160.345
152.964
145.177
137.023
128.544
119.784
110.785
101.592
92.251
82.806
73.3
63.778
54.28
44.849
35.523
26.34
17.337
8.547
0.004
-8.264
-16.228
-23.864
-31.151
-38.069
-44.602
-50.737
-56.464
-61.776
-66.669
-71.141
-75.193
-78.827
-82.049
-84.867
-87.291
-89.331
-91.003
-92.32
-93.299
-93.959
-94.317
-94.394
-94.208
-93.782
-93.134
-92.287
-91.26
-90.075
-88.753
-87.314
-85.779
-84.168
-82.5
-80.793
-79.066
-77.335
-75.616
-73.924
-72.271
-70.671
-69.134
-67.671
-66.291
-65.001
-63.81
-62.722
-61.743
-60.876
-60.124
-59.488
-58.97
-58.57
-58.286
-58.117
-58.062
-58.117
-58.28
-58.547
-58.912
-59.371
-59.918
-60.547
-61.25
-62.019
-62.846
-63.721
-64.635
-65.579
-66.541
-67.51
-68.475
-69.425
-70.349
-71.236
-72.076
-72.856
-73.567
-74.195
-74.733
-75.169
-75.494
-75.696
-75.768
-75.7
-75.486
-75.117
-74.588
-73.892
-73.024
-71.982
-70.762
-69.363
-67.784
-66.027
-64.094
-61.99
-59.721
-57.296
-54.725
-52.021
-49.201
-46.285
-43.292
-40.244
-37.162
-34.069
-30.989
-27.945
-24.957
-22.045
-19.23
-16.533
-13.981
-11.601
-9.415
-7.445
-5.714
-4.24
-3.044
-2.142
-1.535
-1.227
-1.224
-1.541
-2.205
-3.241
-4.653
-6.444
-8.61
-11.13
-13.983
-17.125
-20.478
-23.968
-27.526
-31.091
-34.629
-38.097
-41.429
-44.544
-47.343
-49.738
-51.686
-53.14
-54.049
-54.418
-54.287
-53.758
-53.003
-52.154
-51.315
-50.618
-50.191
-50.168
-50.692
-51.845
-53.742
-56.632
-60.622
-65.631
-71.393
-77.295
-82.745
-87.358
-90.509
-91.272
-89.05
-83.768
-76.074
-67.489
-59.178
-51.745
-46.218
-44.083
-46.398
-51.382
-54.196
-49.576
-34.329
-11.695
12.175
37.505
70.945
125.605
215.783
344.601
505.026
684.895
868.08
1038.342
1180.939
1277.991
1311.743
1274.289
1165.355
997.744
797.256
589.157
400.158
249.005
139.343
67.449
19.38
-18.712
-51.721
-79.313
-95.044
-94.782
-81.486
-61.644
-43.771
-32.864
-29.44
-32.414
-39.671
-49.514
-60.586
-70.838
-78.183
-81.592
-81.027
-77.192
-71.241
-64.139
-56.698
-49.853
-44.494
-41.123
-39.875
-40.599
-42.944
-46.59
-51.28
-56.738
-62.684
-68.87
-75.065
-81.024
-86.518
-91.372
-95.456
-98.687
-101.029
-102.452
-102.953
-102.587
-101.437
-99.591
-97.135
-94.133
-90.644
-86.75
-82.55
-78.156
-73.681
-69.205
-64.777
-60.435
-56.202
-52.089
-48.095
-44.195
-40.349
-36.528
-32.711
-28.881
-25.03
-21.138
-17.181
-13.136
-8.984
-4.709
-0.298
4.261
8.975
13.851
18.886
24.077
29.414
34.891
40.501
46.238
52.094
58.059
64.122
70.269
76.487
82.76
89.067
95.387
101.695
107.966
114.175
120.292
126.29
132.139
137.808
143.268
148.489
153.441
158.092
162.415
166.38
169.961
173.132
175.867
178.144
179.942
181.241
182.027
182.287
182.009
181.187
179.815
177.892
175.421
172.404
168.85
164.767
160.169
155.071
149.492
143.453
136.978
130.092
122.824
115.205
107.265
99.037
90.557
81.858
72.976
63.949
54.812
45.602
36.357
27.114
17.908
8.776
-0.249
-9.134
-17.848
-26.361
-34.647
-42.681
-50.442
-57.909
-65.064
-71.894
-78.385
-84.527
-90.313
-95.737
-100.797
-105.492
-109.823
-113.796
-117.416
-120.691
-123.631
-126.246
-128.55
-130.556
-132.278
-133.733
-134.938
-135.912
-136.672
-137.24
-137.636
-137.879
-137.991
-137.992
-137.903
-137.742
-137.527
-137.275
-137.002
-136.724
-136.452
-136.199
-135.976
-135.791
-135.652
-135.565
-135.534
-135.563
-135.651
-135.798
-136.004
-136.264
-136.576
-136.935
-137.334
-137.769
-138.231
-138.714
-139.208
-139.704
-140.192
-140.66
-141.096
-141.488
-141.822
-142.085
-142.263
-142.343
-142.311
-142.157
-141.867
-141.43
-140.836
-140.076
-139.141
-138.024
-136.72
-135.222
-133.529
-131.639
-129.551
-127.268
-124.791
-122.125
-119.275
-116.25
-113.055
-109.701
-106.197
-102.553
-98.784
-94.901
-90.92
-86.855
-82.723
-78.547
-74.356
-70.177
-66.041
-61.976
-58.011
-54.178
-50.508
-47.026
-43.751
-40.701
-37.895
-35.355
-33.11
-31.184
-29.6
-28.373
-27.506
-27.005
-26.877
-27.118
-27.719
-28.672
-29.971
-31.629
-33.68
-36.148
-39.051
-42.382
-46.124
-50.247
-54.697
-59.425
-64.376
-69.488
-74.725
-80.018
-85.265
-90.381
-95.269
-99.809
-103.929
-107.482
-110.234
-112.211
-113.623
-114.693
-115.771
-116.912
-117.813
-118.515
-119.381
-120.352
-121.096
-121.156
-119.837
-117.483
-115.444
-114.39
-114.235
-114.982
-116.764
-120.102
-125.949
-133.726
-141.366
-147.542
-152.174
-155.888
-159.425
-162.854
-165.302
-166.848
-168.925
-172.323
-175.998
-177.111
-172.175
-158.107
-132.817
-93.953
-37.846
39.298
137.207
250.811
374.537
502.216
634.273
777.227
928.381
1078.499
1206.956
1282.936
1291.864
1230.741
1109.896
956.076
783.884
606.48
438.023
282.26
152.761
57.017
-11.188
-55.321
-85.434
-107.88
-118.283
-116.445
-104.113
-85.222
-68.265
-57.775
-54.175
-56.866
-63.776
-73.093
-83.442
-92.768
-98.97
-101.066
-99.177
-94.114
-87.052
-78.994
-70.764
-63.285
-57.46
-53.785
-52.346
-52.94
-55.183
-58.723
-63.293
-68.617
-74.398
-80.371
-86.293
-91.901
-96.96
-101.294
-104.769
-107.303
-108.857
-109.409
-108.967
-107.603
-105.418
-102.509
-98.972
-94.879
-90.298
-85.321
-80.058
-74.625
-69.14
-63.687
-58.318
-53.074
-47.979
-43.044
-38.268
-33.622
-29.066
-24.569
-20.11
-15.671
-11.242
-6.802
-2.327
2.207
6.819
11.526
16.34
21.274
26.338
31.536
36.867
42.329
47.913
53.614
59.427
65.347
71.367
77.481
83.677
89.943
96.267
102.632
109.017
115.401
121.758
128.062
134.285
140.4
146.375
152.18
157.784
163.155
168.264
173.078
177.567
181.702
185.457
188.803
191.717
194.175
196.158
197.646
198.626
199.083
199.008
198.394
197.235
195.531
193.282
190.494
187.175
183.334
178.985
174.145
168.834
163.075
156.894
150.319
143.379
136.109
128.541
120.712
112.658
104.417
96.027
87.527
78.954
70.348
61.744
53.179
44.689
36.307
28.065
19.994
12.121
4.473
-2.926
-10.055
-16.893
-23.426
-29.637
-35.515
-41.049
-46.234
-51.063
-55.535
-59.649
-63.408
-66.815
-69.878
-72.606
-75.008
-77.098
-78.89
-80.399
-81.642
-82.637
-83.403
-83.957
-84.321
-84.513
-84.553
-84.461
-84.257
-83.958
-83.584
-83.152
-82.678
-82.178
-81.666
-81.156
-80.659
-80.189
-79.754
-79.364
-79.028
-78.753
-78.546
-78.411
-78.355
-78.378
-78.483
-78.671
-78.941
-79.292
-79.72
-80.222
-80.794
-81.431
-82.126
-82.873
-83.665
-84.493
-85.348
-86.223
-87.106
-87.988
-88.858
-89.707
-90.524
-91.301
-92.028
-92.696
-93.298
-93.823
-94.263
-94.609
-94.852
-94.985
-94.998
-94.883
-94.632
-94.239
-93.698
-93.003
-92.15
-91.134
-89.952
-88.603
-87.086
-85.4
-83.546
-81.527
-79.349
-77.016
-74.537
-71.923
-69.186
-66.342
-63.408
-60.402
-57.344
-54.253
-51.15
-48.056
-44.99
-41.97
-39.016
-36.148
-33.388
-30.759
-28.287
-25.998
-23.916
-22.066
-20.471
-19.154
-18.133
-17.418
-17.02
-16.95
-17.225
-17.878
-18.934
-20.405
-22.299
-24.61
-27.324
-30.415
-33.832
-37.498
-41.337
-45.274
-49.244
-53.209
-57.12
-60.923
-64.542
-67.876
-70.838
-73.372
-75.441
-77.017
-78.104
-78.749
-79.061
-79.241
-79.471
-79.893
-80.631
-81.784
-83.487
-85.899
-89.194
-93.517
-99.034
-105.946
-114.28
-123.878
-134.364
-145.032
-155.066
-163.703
-170.073
-173.143
-172.388
-167.947
-160.457
-151.367
-142.189
-133.823
-127.277
-123.887
-123.993
-126.437
-129.029
-127.979
-118.655
-97.698
-61.754
-6.328
69.636
164.965
279.713
409.474
551.502
703.974
853.737
987.846
1092.092
1151.934
1169.192
1147.709
1092.002
1010.469
903.233
773.294
628.628
475.768
324.646
184.615
61.427
-39.853
-116.412
-168.609
-198.554
-209.618
-205.829
-191.774
-172.079
-151.185
-133.138
-120.034
-112.178
-109.21
-110.256
-113.965
-118.976
-123.65
-126.212
-126.067
-123.544
-119.211
-113.919
-108.433
-103.288
-99.219
-97.008
-96.926
-98.915
-102.699
-107.782
-113.795
-120.467
-127.45
-134.399
-140.981
-146.872
-151.889
-155.964
-159.043
-161.11
-162.145
-162.127
-161.115
-159.213
-156.524
-153.162
-149.216
-144.762
-139.901
-134.746
-129.418
-124.047
-118.714
-113.47
-108.35
-103.374
-98.551
-93.892
-89.375
-84.959
-80.615
-76.317
-72.047
-67.798
-63.546
-59.264
-54.928
-50.511
-45.997
-41.372
-36.623
-31.74
-26.718
-21.553
-16.251
-10.821
-5.268
0.403
6.184
12.07
18.049
24.111
30.241
36.426
42.648
48.884
55.111
61.304
67.436
73.48
79.406
85.186
90.79
96.188
101.35
106.249
110.854
115.137
119.069
122.624
125.777
128.504
130.784
132.598
133.927
134.76
135.085
134.894
134.183
132.948
131.193
128.92
126.137
122.854
119.084
114.842
110.147
105.02
99.486
93.57
87.302
80.71
73.827
66.685
59.319
51.761
44.048
36.214
28.295
20.326
12.341
4.376
-3.536
-11.363
-19.073
-26.637
-34.028
-41.219
-48.188
-54.914
-61.378
-67.563
-73.455
-79.042
-84.314
-89.263
-93.885
-98.175
-102.133
-105.76
-109.059
-112.035
-114.694
-117.044
-119.094
-120.856
-122.341
-123.562
-124.533
-125.269
-125.786
-126.1
-126.228
-126.188
-125.996
-125.67
-125.227
-124.682
-124.053
-123.355
-122.602
-121.808
-120.986
-120.149
-119.309
-118.477
-117.661
-116.873
-116.119
-115.407
-114.743
-114.133
-113.581
-113.092
-112.668
-112.311
-112.023
-111.805
-111.657
-111.577
-111.563
-111.611
-111.718
-111.879
-112.088
-112.339
-112.626
-112.941
-113.278
-113.629
-113.987
-114.343
-114.689
-115.017
-115.317
-115.581
-115.798
-115.958
-116.052
-116.069
-116
-115.834
-115.563
-115.175
-114.662
-114.014
-113.22
-112.273
-111.163
-109.882
-108.424
-106.782
-104.952
-102.931
-100.717
-98.309
-95.706
-92.91
-89.923
-86.749
-83.391
-79.855
-76.148
-72.28
-68.258
-64.097
-59.809
-55.412
-50.924
-46.369
-41.767
-37.145
-32.528
-27.943
-23.419
-18.982
-14.657
-10.471
-6.448
-2.615
1.001
4.372
7.472
10.273
12.752
14.887
16.655
18.042
19.043
19.65
19.86
19.661
19.031
17.951
16.412
14.408
11.938
9.017
5.672
1.954
-2.058
-6.281
-10.633
-15.037
-19.439
-23.774
-27.977
-31.967
-35.642
-38.911
-41.702
-43.955
-45.612
-46.655
-47.123
-47.128
-46.867
-46.532
-46.275
-46.237
-46.565
-47.428
-49.001
-51.442
-54.842
-59.332
-65.153
-72.408
-81.021
-90.625
-100.44
-109.641
-117.501
-123.092
-125.309
-123.524
-117.655
-108.465
-97.751
-87.014
-77.492
-70.977
-69.135
-72.6
-79.154
-83.484
-79.52
-63.157
-36.173
-2.233
38.306
88.776
162.313
272.861
428.159
630.38
861.112
1091.535
1287.907
1412.045
1449.843
1405.011
1295.541
1155.885
1007.144
858.304
712.292
562.877
411.474
267.741
141.491
41.839
-28.146
-71.107
-91.448
-94.806
-86.634
-72.858
-59.749
-51.283
-49.35
-54.393
-65.248
-80.105
-97.112
-113.471
-126.146
-133.638
-135.441
-131.808
-123.915
-112.956
-100.064
-86.813
-74.716
-64.603
-56.915
-51.695
-48.654
-47.626
-48.435
-50.759
-54.276
-58.685
-63.753
-69.33
-75.235
-81.213
-86.969
-92.192
-96.66
-100.261
-102.911
-104.575
-105.258
-104.973
-103.786
-101.8
-99.096
-95.763
-91.882
-87.522
-82.783
-77.778
-72.622
-67.432
-62.295
-57.252
-52.334
-47.553
-42.901
-38.365
-33.919
-29.519
-25.136
-20.75
-16.344
-11.906
-7.421
-2.868
1.769
6.507
11.356
16.321
21.402
26.596
31.895
37.289
42.763
48.297
53.874
59.481
65.102
70.722
76.327
81.898
87.416
92.864
98.22
103.461
108.564
113.502
118.249
122.78
127.07
131.092
134.821
138.234
141.305
144.014
146.339
148.261
149.763
150.829
151.447
151.607
151.301
150.523
149.271
147.545
145.348
142.685
139.564
135.993
131.984
127.553
122.714
117.487
111.89
105.946
99.678
93.111
86.273
79.19
71.893
64.411
56.774
49.014
41.161
33.248
25.304
17.36
9.447
1.592
-6.176
-13.831
-21.347
-28.702
-35.873
-42.84
-49.586
-56.093
-62.347
-68.336
-74.048
-79.474
-84.607
-89.441
-93.972
-98.198
-102.119
-105.736
-109.051
-112.069
-114.793
-117.231
-119.39
-121.278
-122.905
-124.28
-125.414
-126.319
-127.007
-127.49
-127.78
-127.892
-127.836
-127.627
-127.277
-126.798
-126.202
-125.502
-124.708
-123.833
-122.887
-121.881
-120.825
-119.729
-118.603
-117.454
-116.292
-115.123
-113.954
-112.792
-111.642
-110.511
-109.402
-108.322
-107.273
-106.261
-105.289
-104.361
-103.48
-102.648
-101.867
-101.141
-100.471
-99.859
-99.306
-98.815
-98.387
-98.024
-97.726
-97.494
-97.329
-97.229
-97.195
-97.225
-97.318
-97.471
-97.682
-97.95
-98.27
-98.639
-99.055
-99.514
-100.011
-100.54
-101.098
-101.677
-102.27
-102.872
-103.473
-104.066
-104.641
-105.189
-105.701
-106.167
-106.577
-106.92
-107.184
-107.36
-107.434
-107.397
-107.237
-106.943
-106.504
-105.913
-105.159
-104.237
-103.139
-101.859
-100.392
-98.734
-96.884
-94.841
-92.604
-90.174
-87.556
-84.754
-81.774
-78.626
-75.321
-71.874
-68.304
-64.63
-60.874
-57.061
-53.216
-49.366
-45.539
-41.76
-38.053
-34.445
-30.962
-27.632
-24.487
-21.559
-18.873
-16.458
-14.336
-12.531
-11.066
-9.956
-9.205
-8.821
-8.815
-9.207
-10.033
-11.318
-13.071
-15.294
-17.98
-21.111
-24.667
-28.604
-32.847
-37.328
-41.972
-46.722
-51.542
-56.38
-61.16
-65.781
-70.11
-74.035
-77.491
-80.43
-82.816
-84.636
-85.904
-86.686
-87.104
-87.298
-87.397
-87.51
-87.748
-88.248
-89.145
-90.679
-93.182
-96.827
-101.594
-107.194
-113.035
-118.547
-123.251
-126.481
-127.403
-125.418
-120.38
-113.119
-105.335
-98.561
-94.005
-92.541
-94.808
-101.289
-111.61
-123.402
-132.604
-134.874
-125.947
-102.473
-61.546
0.015
84.019
189.54
313.028
449.167
591.693
734.486
870.401
990.663
1087.305
1154.148
1187.486
1186.109
1149.866
1079.74
979.884
857.448
720.521
577.658
436.347
302.875
184.126
85.963
10.869
-41.42
-73.105
-87.935
-89.449
-81.333
-68.918
-57.315
-49.624
-47.321
-50.233
-57.1
-66.878
-78.358
-89.375
-97.754
-102.243
-102.467
-99.021
-93.04
-85.516
-77.325
-69.481
-62.977
-58.417
-56.042
-55.766
-57.257
-60.202
-64.344
-69.397
-75.052
-81.085
-87.275
-93.387
-99.21
-104.492
-109.022
-112.679
-115.382
-117.087
-117.784
-117.499
-116.293
-114.273
-111.539
-108.174
-104.254
-99.846
-95.036
-89.932
-84.645
-79.29
-73.948
-68.67
-63.495
-58.446
-53.528
-48.735
-44.04
-39.405
-34.799
-30.204
-25.605
-20.993
-16.351
-11.658
-6.898
-2.052
2.893
7.944
13.111
18.398
23.802
29.322
34.949
40.671
46.477
52.361
58.313
64.324
70.384
76.48
82.598
88.724
94.841
100.927
106.961
112.918
118.772
124.499
130.07
135.458
140.636
145.578
150.255
154.643
158.715
162.447
165.816
168.801
171.381
173.539
175.257
176.521
177.32
177.643
177.483
176.835
175.696
174.064
171.943
169.337
166.252
162.697
158.684
154.227
149.342
144.05
138.371
132.331
125.955
119.272
112.312
105.106
97.688
90.089
82.345
74.488
66.553
58.573
50.584
42.617
34.704
26.878
19.169
11.605
4.214
-2.977
-9.945
-16.666
-23.119
-29.285
-35.147
-40.688
-45.895
-50.756
-55.261
-59.401
-63.172
-66.569
-69.591
-72.239
-74.516
-76.427
-77.981
-79.185
-80.051
-80.591
-80.819
-80.75
-80.4
-79.787
-78.929
-77.844
-76.551
-75.071
-73.423
-71.626
-69.7
-67.666
-65.542
-63.347
-61.099
-58.817
-56.519
-54.221
-51.94
-49.692
-47.491
-45.353
-43.291
-41.317
-39.441
-37.674
-36.025
-34.5
-33.106
-31.847
-30.726
-29.744
-28.903
-28.202
-27.638
-27.209
-26.911
-26.738
-26.686
-26.747
-26.915
-27.183
-27.542
-27.985
-28.503
-29.089
-29.734
-30.429
-31.166
-31.936
-32.731
-33.542
-34.361
-35.179
-35.989
-36.783
-37.554
-38.295
-38.999
-39.662
-40.279
-40.845
-41.358
-41.815
-42.215
-42.558
-42.844
-43.075
-43.253
-43.38
-43.461
-43.5
-43.5
-43.468
-43.407
-43.323
-43.221
-43.106
-42.983
-42.857
-42.732
-42.613
-42.504
-42.409
-42.331
-42.274
-42.24
-42.233
-42.255
-42.306
-42.388
-42.5
-42.642
-42.813
-43.009
-43.229
-43.468
-43.721
-43.983
-44.248
-44.508
-44.754
-44.978
-45.17
-45.321
-45.42
-45.458
-45.425
-45.312
-45.109
-44.807
-44.399
-43.878
-43.237
-42.469
-41.571
-40.538
-39.367
-38.059
-36.612
-35.028
-33.31
-31.464
-29.501
-27.431
-25.265
-23.02
-20.71
-18.354
-15.97
-13.577
-11.192
-8.831
-6.515
-4.266
-2.107
-0.066
1.832
3.559
5.091
6.402
7.466
8.264
8.781
9.005
8.922
8.514
7.745
6.586
5.019
3.03
0.613
-2.22
-5.45
-9.035
-12.903
-16.984
-21.201
-25.484
-29.785
-34.045
-38.203
-42.187
-45.891
-49.219
-52.097
-54.467
-56.289
-57.572
-58.362
-58.761
-58.958
-59.135
-59.451
-60.093
-61.216
-62.995
-65.63
-69.287
-74.123
-80.349
-88.221
-97.824
-109.024
-121.402
-134.219
-146.742
-158.345
-168.249
-175.427
-179.143
-179.278
-176.393
-171.905
-167.11
-162.444
-158.348
-155.681
-154.789
-155.003
-154.284
-148.684
-134.203
-108.534
-69.065
-12.289
64.189
161.851
278.485
406.582
541
679.149
819.238
961.996
1098.266
1210.675
1283.653
1300.819
1260.134
1174.207
1055.417
920.359
779.053
631.279
480.327
329.927
185.839
58.633
-44.981
-123.333
-176.993
-209.073
-223.166
-221.894
-208.472
-187.677
-164.587
-142.925
-125.072
-112.002
-103.683
-100.564
-103.376
-111.234
-121.982
-133.501
-143.723
-151.672
-157.547
-161.042
-161.253
-158.163
-152.51
-145.494
-138.957
-133.942
-130.515
-128.917
-129.482
-132.254
-137.182
-143.785
-151.011
-158.158
-164.889
-170.879
-176.031
-180.259
-183.38
-185.396
-186.459
-186.666
-186.124
-184.915
-183.026
-180.495
-177.402
-173.82
-169.873
-165.68
-161.337
-156.946
-152.575
-148.264
-144.049
-139.946
-135.945
-132.031
-128.172
-124.329
-120.481
-116.613
-112.7
-108.722
-104.644
-100.434
-96.067
-91.521
-86.776
-81.821
-76.642
-71.234
-65.595
-59.728
-53.64
-47.341
-40.839
-34.139
-27.252
-20.189
-12.963
-5.592
1.906
9.513
17.204
24.951
32.724
40.49
48.213
55.859
63.39
70.766
77.95
84.901
91.582
97.953
103.977
109.619
114.843
119.617
123.911
127.697
130.95
133.648
135.773
137.309
138.243
138.568
138.277
137.37
135.846
133.712
130.975
127.648
123.745
119.286
114.294
108.794
102.817
96.395
89.564
82.362
74.828
67.004
58.933
50.659
42.225
33.678
25.059
16.415
7.786
-0.785
-9.258
-17.595
-25.761
-33.721
-41.445
-48.905
-56.074
-62.93
-69.451
-75.62
-81.423
-86.847
-91.883
-96.525
-100.769
-104.616
-108.067
-111.128
-113.806
-116.111
-118.057
-119.657
-120.927
-121.886
-122.554
-122.949
-123.094
-123.012
-122.723
-122.252
-121.619
-120.847
-119.957
-118.969
-117.902
-116.776
-115.606
-114.409
-113.201
-111.994
-110.801
-109.634
-108.503
-107.415
-106.38
-105.402
-104.486
-103.636
-102.855
-102.144
-101.502
-100.93
-100.424
-99.983
-99.603
-99.28
-99.009
-98.785
-98.603
-98.456
-98.34
-98.249
-98.177
-98.122
-98.078
-98.043
-98.013
-97.987
-97.963
-97.939
-97.915
-97.89
-97.866
-97.841
-97.818
-97.796
-97.778
-97.765
-97.759
-97.762
-97.776
-97.804
-97.848
-97.91
-97.995
-98.104
-98.24
-98.406
-98.606
-98.842
-99.117
-99.434
-99.794
-100.2
-100.652
-101.151
-101.696
-102.286
-102.919
-103.593
-104.305
-105.051
-105.827
-106.629
-107.452
-108.291
-109.14
-109.995
-110.849
-111.696
-112.53
-113.345
-114.133
-114.888
-115.603
-116.269
-116.879
-117.425
-117.899
-118.292
-118.597
-118.803
-118.902
-118.885
-118.743
-118.468
-118.051
-117.485
-116.764
-115.88
-114.83
-113.61
-112.215
-110.644
-108.894
-106.964
-104.856
-102.57
-100.108
-97.473
-94.669
-91.703
-88.58
-85.31
-81.903
-78.37
-74.727
-70.992
-67.182
-63.317
-59.418
-55.508
-51.609
-47.744
-43.933
-40.197
-36.559
-33.041
-29.67
-26.475
-23.479
-20.706
-18.179
-15.916
-13.941
-12.267
-10.899
-9.842
-9.105
-8.706
-8.676
-9.041
-9.809
-10.987
-12.57
-14.541
-16.879
-19.542
-22.458
-25.561
-28.787
-32.084
-35.429
-38.787
-42.098
-45.28
-48.225
-50.836
-53.067
-54.874
-56.212
-57.091
-57.542
-57.667
-57.637
-57.587
-57.621
-57.839
-58.326
-59.195
-60.61
-62.712
-65.685
-69.789
-75.093
-81.485
-88.678
-96.033
-102.817
-108.399
-111.992
-112.659
-109.957
-104.081
-95.832
-86.884
-79.009
-73.258
-70.515
-71.853
-77.484
-86.231
-95.648
-101.529
-98.949
-84.328
-54.772
-6.656
62.823
154.087
265.941
392.72
524.44
655.052
780.056
896.05
1004.028
1095.435
1155.24
1170.554
1128.816
1035.475
908.351
762.311
612.504
460.55
306.247
162.299
41.463
-39.284
-73.828
-75.888
-59.992
-42.344
-31.173
-22.41
-14.992
-8.191
-2.361
-1.834
-7.312
-16.882
-28.99
-40.668
-49.283
-54.105
-54.836
-51.668
-45.738
-38.204
-29.964
-22.092
-15.571
-10.836
-8.113
-7.413
-8.409
-10.804
-14.349
-18.718
-23.628
-28.889
-34.31
-39.708
-44.889
-49.605
-53.666
-56.964
-59.422
-61.01
-61.708
-61.517
-60.492
-58.726
-56.308
-53.319
-49.822
-45.868
-41.533
-36.913
-32.107
-27.224
-22.336
-17.489
-12.718
-8.043
-3.474
0.992
5.38
9.728
14.062
18.4
22.757
27.142
31.572
36.071
40.657
45.348
50.158
55.098
60.178
65.404
70.778
76.296
81.951
87.734
93.633
99.642
105.751
111.948
118.223
124.56
130.945
137.36
143.787
150.202
156.582
162.899
169.128
175.24
181.208
187.003
192.596
197.957
203.058
207.87
212.365
216.513
220.288
223.665
226.618
229.126
231.167
232.723
233.779
234.32
234.337
233.822
232.769
231.175
229.041
226.37
223.168
219.445
215.212
210.483
205.277
199.613
193.515
187.008
180.119
172.876
165.31
157.451
149.333
140.989
132.452
123.758
114.942
106.038
97.083
88.112
79.158
70.255
61.435
52.73
44.167
35.776
27.582
19.61
11.88
4.415
-2.768
-9.652
-16.224
-22.472
-28.386
-33.961
-39.191
-44.075
-48.611
-52.801
-56.648
-60.157
-63.335
-66.189
-68.728
-70.962
-72.904
-74.566
-75.962
-77.108
-78.019
-78.712
-79.203
-79.509
-79.647
-79.635
-79.488
-79.223
-78.856
-78.404
-77.88
-77.301
-76.68
-76.031
-75.365
-74.695
-74.03
-73.381
-72.754
-72.159
-71.602
-71.088
-70.624
-70.214
-69.862
-69.572
-69.346
-69.186
-69.094
-69.069
-69.111
-69.219
-69.392
-69.628
-69.925
-70.28
-70.691
-71.154
-71.667
-72.227
-72.83
-73.474
-74.155
-74.87
-75.617
-76.393
-77.197
-78.027
-78.88
-79.757
-80.656
-81.577
-82.518
-83.48
-84.461
-85.461
-86.48
-87.516
-88.571
-89.644
-90.734
-91.841
-92.966
-94.109
-95.269
-96.447
-97.641
-98.852
-100.079
-101.323
-102.581
-103.854
-105.139
-106.435
-107.74
-109.051
-110.362
-111.67
-112.97
-114.255
-115.521
-116.759
-117.964
-119.129
-120.246
-121.307
-122.305
-123.233
-124.081
-124.843
-125.509
-126.072
-126.525
-126.861
-127.073
-127.155
-127.1
-126.905
-126.563
-126.072
-125.427
-124.624
-123.663
-122.541
-121.258
-119.817
-118.22
-116.476
-114.595
-112.589
-110.471
-108.258
-105.967
-103.615
-101.222
-98.803
-96.374
-93.949
-91.547
-89.185
-86.889
-84.678
-82.575
-80.598
-78.769
-77.106
-75.629
-74.35
-73.275
-72.409
-71.762
-71.358
-71.235
-71.423
-71.942
-72.806
-74.017
-75.571
-77.456
-79.639
-82.053
-84.629
-87.296
-89.995
-92.691
-95.335
-97.865
-100.192
-102.201
-103.797
-104.912
-105.507
-105.56
-105.072
-104.075
-102.658
-100.971
-99.2
-97.542
-96.174
-95.275
-95.02
-95.558
-97.135
-100.075
-104.565
-110.629
-118.021
-126.18
-134.542
-142.636
-149.796
-155.142
-157.954
-157.845
-155.276
-151.618
-148.328
-146.523
-147.064
-150.767
-158.12
-168.909
-181.305
-191.521
-195.062
-187.771
-165.836
-125.39
-63.019
23.851
133.837
260.829
398.132
540.26
686.831
838.978
990.668
1128.187
1228.857
1272.318
1253.699
1178.788
1064.715
928.987
776.332
613.839
450.347
295.708
169.183
78.269
16.734
-22.903
-53.525
-80.169
-97.246
-103.004
-97.401
-83.175
-67.59
-54.35
-44.362
-38.412
-35.574
-34.985
-36.365
-39.156
-42.941
-47.616
-52.707
-57.291
-61.138
-64.363
-66.985
-68.959
-69.862
-69.347
-67.823
-66.32
-65.493
-65.557
-66.544
-68.39
-71.323
-75.534
-80.718
-86.137
-91.109
-95.242
-98.395
-100.616
-101.867
-102.043
-101.154
-99.341
-96.795
-93.669
-90.043
-85.918
-81.304
-76.275
-70.937
-65.422
-59.854
-54.307
-48.831
-43.462
-38.225
-33.138
-28.205
-23.404
-18.699
-14.064
-9.484
-4.954
-0.473
3.972
8.405
12.854
17.343
21.891
26.51
31.212
36.009
40.907
45.912
51.02
56.228
61.531
66.929
72.421
78.005
83.677
89.429
95.252
101.136
107.068
113.032
119.009
124.977
130.915
136.797
142.599
148.291
153.848
159.239
164.436
169.41
174.132
178.573
182.706
186.503
189.94
192.992
195.637
197.854
199.624
200.932
201.764
202.108
201.957
201.304
200.147
198.485
196.32
193.658
190.507
186.875
182.778
178.23
173.252
167.864
162.092
155.962
149.503
142.745
135.72
128.462
121.004
113.381
105.628
97.78
89.872
81.939
74.013
66.129
58.318
50.61
43.034
35.616
28.381
21.353
14.551
7.994
1.699
-4.32
-10.052
-15.484
-20.611
-25.424
-29.921
-34.099
-37.959
-41.502
-44.734
-47.661
-50.29
-52.631
-54.696
-56.495
-58.044
-59.355
-60.444
-61.326
-62.018
-62.534
-62.892
-63.107
-63.195
-63.171
-63.049
-62.843
-62.566
-62.228
-61.842
-61.416
-60.959
-60.479
-59.984
-59.479
-58.97
-58.462
-57.959
-57.464
-56.981
-56.51
-56.054
-55.612
-55.184
-54.771
-54.372
-53.985
-53.609
-53.244
-52.887
-52.538
-52.196
-51.859
-51.527
-51.2
-50.877
-50.558
-50.245
-49.938
-49.641
-49.355
-49.084
-48.832
-48.603
-48.401
-48.23
-48.095
-48
-47.949
-47.946
-47.995
-48.099
-48.261
-48.485
-48.772
-49.126
-49.547
-50.036
-50.593
-51.217
-51.906
-52.656
-53.464
-54.323
-55.227
-56.17
-57.142
-58.135
-59.14
-60.146
-61.14
-62.112
-63.047
-63.932
-64.752
-65.495
-66.144
-66.687
-67.108
-67.395
-67.535
-67.517
-67.328
-66.957
-66.396
-65.635
-64.667
-63.484
-62.082
-60.458
-58.611
-56.54
-54.248
-51.742
-49.03
-46.125
-43.044
-39.803
-36.423
-32.926
-29.335
-25.676
-21.973
-18.248
-14.524
-10.827
-7.184
-3.625
-0.182
3.114
6.234
9.15
11.834
14.258
16.401
18.247
19.784
20.995
21.855
22.322
22.36
21.944
21.06
19.703
17.885
15.621
12.95
9.941
6.666
3.202
-0.385
-4.052
-7.75
-11.417
-14.961
-18.261
-21.208
-23.721
-25.749
-27.268
-28.29
-28.841
-29.027
-29.019
-28.973
-29.077
-29.496
-30.359
-31.845
-34.124
-37.37
-41.843
-47.853
-55.523
-64.75
-75.164
-86.097
-96.909
-107.057
-115.816
-122.245
-125.697
-126.196
-124.489
-122.064
-120.313
-119.764
-120.692
-123.666
-128.702
-134.723
-139.458
-138.962
-128.983
-106.79
-70.186
-16.587
55.754
147.424
257.425
381.825
515.206
652.741
788.919
916.708
1028.943
1118.458
1178.968
1206.963
1200.767
1159.385
1084.015
978.969
850.532
706.797
556.699
408.266
269.114
146.608
46.259
-29.51
-80.844
-110.151
-121.383
-118.811
-107.387
-92.681
-79.658
-71.434
-69.258
-72.888
-81.101
-92.457
-105.18
-117.038
-125.883
-130.505
-130.765
-127.284
-121.164
-113.519
-105.333
-97.648
-91.475
-87.38
-85.528
-85.824
-87.938
-91.54
-96.38
-102.157
-108.552
-115.343
-122.3
-129.175
-135.751
-141.769
-147.016
-151.375
-154.762
-157.134
-158.488
-158.856
-158.304
-156.938
-154.856
-152.137
-148.86
-145.092
-140.924
-136.465
-131.827
-127.127
-122.447
-117.841
-113.347
-108.988
-104.77
-100.683
-96.701
-92.785
-88.906
-85.046
-81.189
-77.325
-73.438
-69.507
-65.513
-61.439
-57.27
-52.996
-48.609
-44.103
-39.48
-34.74
-29.892
-24.947
-19.914
-14.802
-9.619
-4.373
0.924
6.261
11.623
16.996
22.363
27.703
32.997
38.219
43.347
48.355
53.219
57.912
62.41
66.685
70.713
74.468
77.925
81.061
83.853
86.28
88.323
89.963
91.183
91.97
92.312
92.199
91.624
90.581
89.068
87.087
84.638
81.729
78.367
74.562
70.329
65.681
60.638
55.219
49.446
43.345
36.941
30.262
23.336
16.195
8.868
1.388
-6.213
-13.904
-21.652
-29.424
-37.191
-44.92
-52.582
-60.148
-67.591
-74.884
-82.001
-88.921
-95.621
-102.082
-108.286
-114.218
-119.863
-125.211
-130.252
-134.978
-139.384
-143.468
-147.228
-150.664
-153.779
-156.577
-159.065
-161.25
-163.142
-164.75
-166.086
-167.165
-167.998
-168.602
-168.991
-169.181
-169.188
-169.028
-168.718
-168.274
-167.712
-167.047
-166.295
-165.471
-164.589
-163.662
-162.704
-161.727
-160.741
-159.758
-158.786
-157.834
-156.91
-156.019
-155.169
-154.363
-153.605
-152.898
-152.244
-151.644
-151.099
-150.608
-150.169
-149.782
-149.443
-149.151
-148.901
-148.69
-148.515
-148.372
-148.257
-148.166
-148.096
-148.043
-148.004
-147.976
-147.956
-147.942
-147.932
-147.925
-147.919
-147.913
-147.906
-147.898
-147.89
-147.881
-147.872
-147.864
-147.858
-147.856
-147.859
-147.868
-147.885
-147.91
-147.945
-147.991
-148.048
-148.119
-148.202
-148.298
-148.407
-148.529
-148.663
-148.806
-148.956
-149.111
-149.265
-149.414
-149.553
-149.674
-149.77
-149.833
-149.855
-149.827
-149.741
-149.585
-149.35
-149.024
-148.598
-148.06
-147.4
-146.607
-145.67
-144.581
-143.332
-141.915
-140.324
-138.552
-136.594
-134.448
-132.111
-129.582
-126.86
-123.946
-120.844
-117.559
-114.096
-110.466
-106.677
-102.744
-98.687
-94.523
-90.277
-85.972
-81.633
-77.287
-72.962
-68.685
-64.482
-60.376
-56.393
-52.557
-48.898
-45.446
-42.228
-39.27
-36.594
-34.223
-32.179
-30.479
-29.127
-28.128
-27.487
-27.22
-27.353
-27.916
-28.919
-30.371
-32.274
-34.61
-37.356
-40.47
-43.871
-47.48
-51.216
-54.999
-58.776
-62.489
-66.057
-69.384
-72.358
-74.861
-76.821
-78.177
-78.872
-78.915
-78.356
-77.297
-75.907
-74.351
-72.784
-71.379
-70.284
-69.631
-69.581
-70.287
-71.996
-75.066
-79.597
-85.514
-92.625
-100.369
-108.149
-115.379
-121.002
-123.814
-123.408
-119.719
-112.994
-104.745
-96.495
-89.583
-86.575
-87.654
-89.072
-87.922
-81.307
-71.324
-67.645
-72.636
-79.815
-71.54
-19.911
89.306
254.71
461.766
681.966
892.186
1074.829
1211.793
1294.172
1318.494
1286.95
1214.226
1115.042
999.096
873.152
737.41
593.433
448.007
309.746
188.437
90.778
18.261
-30.754
-59.654
-72.3
-72.548
-64.855
-54.227
-45.319
-40.926
-41.867
-47.796
-57.556
-69.749
-82.848
-94.795
-103.445
-107.716
-107.536
-103.473
-96.64
-88.132
-78.851
-69.846
-62.177
-56.416
-52.78
-51.22
-51.418
-53.098
-56.044
-59.959
-64.536
-69.527
-74.685
-79.783
-84.607
-88.893
-92.432
-95.094
-96.787
-97.483
-97.184
-95.91
-93.729
-90.744
-87.052
-82.745
-77.91
-72.619
-66.971
-61.082
-55.067
-49.049
-43.118
-37.329
-31.724
-26.325
-21.135
-16.147
-11.333
-6.65
-2.068
2.44
6.893
11.307
15.706
20.116
24.564
29.076
33.675
38.377
43.198
48.152
53.245
58.482
63.861
69.377
75.026
80.804
86.709
92.733
98.87
105.109
111.438
117.843
124.305
130.805
137.318
143.819
150.278
156.668
162.957
169.115
175.108
180.904
186.471
191.775
196.786
201.472
205.802
209.748
213.284
216.384
219.025
221.186
222.85
224.001
224.627
224.719
224.271
223.279
221.745
219.671
217.066
213.939
210.303
206.174
201.573
196.521
191.043
185.168
178.925
172.347
165.468
158.323
150.95
143.385
135.667
127.834
119.924
111.975
104.024
96.107
88.258
80.511
72.899
65.45
58.193
51.154
44.356
37.82
31.565
25.607
19.958
14.629
9.629
4.963
0.634
-3.357
-7.012
-10.334
-13.328
-16.004
-18.371
-20.439
-22.224
-23.74
-25.002
-26.028
-26.837
-27.445
-27.874
-28.14
-28.265
-28.265
-28.161
-27.97
-27.709
-27.397
-27.048
-26.678
-26.3
-25.928
-25.571
-25.242
-24.947
-24.696
-24.493
-24.345
-24.255
-24.227
-24.263
-24.363
-24.529
-24.758
-25.05
-25.402
-25.809
-26.269
-26.775
-27.323
-27.908
-28.523
-29.162
-29.821
-30.493
-31.171
-31.852
-32.529
-33.198
-33.854
-34.494
-35.113
-35.71
-36.283
-36.83
-37.351
-37.846
-38.315
-38.76
-39.182
-39.583
-39.965
-40.331
-40.683
-41.026
-41.363
-41.697
-42.034
-42.377
-42.731
-43.1
-43.489
-43.901
-44.342
-44.815
-45.322
-45.869
-46.457
-47.089
-47.768
-48.494
-49.269
-50.093
-50.964
-51.882
-52.844
-53.848
-54.891
-55.967
-57.074
-58.207
-59.359
-60.526
-61.701
-62.877
-64.047
-65.203
-66.336
-67.437
-68.496
-69.505
-70.454
-71.334
-72.136
-72.849
-73.465
-73.975
-74.369
-74.64
-74.779
-74.777
-74.628
-74.323
-73.86
-73.232
-72.435
-71.468
-70.328
-69.016
-67.53
-65.872
-64.044
-62.047
-59.887
-57.568
-55.095
-52.477
-49.725
-46.851
-43.873
-40.81
-37.68
-34.504
-31.305
-28.105
-24.927
-21.789
-18.71
-15.706
-12.798
-10.007
-7.359
-4.876
-2.579
-0.488
1.379
3.004
4.372
5.472
6.305
6.867
7.151
7.137
6.787
6.073
4.978
3.495
1.628
-0.614
-3.213
-6.129
-9.291
-12.624
-16.053
-19.516
-22.973
-26.372
-29.641
-32.683
-35.371
-37.603
-39.305
-40.434
-40.973
-40.924
-40.318
-39.242
-37.834
-36.277
-34.776
-33.522
-32.706
-32.516
-33.113
-34.772
-37.872
-42.6
-48.915
-56.464
-64.565
-72.62
-80.208
-86.68
-91.141
-92.992
-92.154
-89.516
-86.811
-85.526
-86.591
-90.701
-98.513
-110.17
-124.721
-139.318
-149.67
-151.567
-140.765
-113.244
-65.64
5.142
98.883
210.471
336.572
474.814
623.786
786.418
953.862
1106.697
1225.986
1290.249
1294.041
1251.065
1176.444
1084.999
982.269
860.439
712.198
543.062
370.111
215.896
103.374
36.831
3.323
-9.97
-18.004
-26.87
-31.083
-30.395
-26.359
-21.012
-19.987
-25.315
-35.68
-49.695
-65.135
-79.287
-90.076
-96.42
-97.829
-94.718
-88.279
-79.609
-69.746
-59.957
-51.382
-44.675
-40.2
-37.966
-37.679
-39.124
-42.086
-46.269
-51.384
-57.172
-63.431
-69.974
-76.597
-83.036
-88.989
-94.234
-98.628
-102.092
-104.589
-106.107
-106.665
-106.321
-105.173
-103.313
-100.819
-97.766
-94.217
-90.263
-86.01
-81.575
-77.075
-72.598
-68.195
-63.901
-59.729
-55.682
-51.745
-47.89
-44.071
-40.255
-36.418
-32.543
-28.615
-24.614
-20.517
-16.301
-11.945
-7.432
-2.75
2.112
7.159
12.392
17.809
23.403
29.159
35.068
41.121
47.307
53.614
60.031
66.539
73.122
79.761
86.433
93.113
99.773
106.38
112.903
119.309
125.564
131.633
137.48
143.072
148.375
153.354
157.979
162.216
166.039
169.418
172.329
174.748
176.654
178.028
178.855
179.122
178.821
177.943
176.486
174.45
171.836
168.653
164.908
160.613
155.785
150.441
144.603
138.295
131.546
124.385
116.846
108.963
100.773
92.314
83.625
74.746
65.715
56.574
47.361
38.114
28.873
19.673
10.551
1.54
-7.327
-16.02
-24.51
-32.771
-40.779
-48.512
-55.953
-63.082
-69.887
-76.356
-82.478
-88.247
-93.658
-98.709
-103.398
-107.73
-111.708
-115.341
-118.637
-121.607
-124.264
-126.623
-128.699
-130.509
-132.07
-133.399
-134.516
-135.437
-136.183
-136.771
-137.22
-137.547
-137.77
-137.904
-137.967
-137.972
-137.933
-137.864
-137.775
-137.677
-137.58
-137.494
-137.425
-137.381
-137.367
-137.389
-137.449
-137.551
-137.695
-137.883
-138.112
-138.383
-138.692
-139.037
-139.413
-139.818
-140.246
-140.695
-141.158
-141.631
-142.111
-142.591
-143.069
-143.539
-143.999
-144.445
-144.875
-145.287
-145.678
-146.049
-146.398
-146.726
-147.034
-147.321
-147.59
-147.843
-148.081
-148.307
-148.524
-148.737
-148.949
-149.164
-149.388
-149.625
-149.88
-150.157
-150.463
-150.801
-151.176
-151.593
-152.056
-152.57
-153.136
-153.759
-154.441
-155.184
-155.988
-156.855
-157.784
-158.774
-159.822
-160.927
-162.086
-163.294
-164.547
-165.838
-167.161
-168.51
-169.874
-171.246
-172.613
-173.967
-175.294
-176.585
-177.826
-179.005
-180.11
-181.129
-182.048
-182.855
-183.537
-184.082
-184.476
-184.708
-184.767
-184.641
-184.322
-183.799
-183.065
-182.112
-180.935
-179.529
-177.889
-176.013
-173.9
-171.551
-168.969
-166.157
-163.124
-159.876
-156.428
-152.798
-149.003
-145.064
-141.003
-136.846
-132.616
-128.341
-124.045
-119.752
-115.486
-111.272
-107.138
-103.115
-99.234
-95.529
-92.03
-88.769
-85.775
-83.078
-80.701
-78.658
-76.967
-75.642
-74.709
-74.207
-74.166
-74.606
-75.54
-76.972
-78.89
-81.27
-84.064
-87.191
-90.575
-94.14
-97.819
-101.569
-105.334
-109.048
-112.637
-115.994
-119.027
-121.673
-123.876
-125.593
-126.831
-127.638
-128.124
-128.484
-128.884
-129.45
-130.323
-131.616
-133.476
-136.083
-139.59
-144.13
-149.874
-157.038
-165.665
-175.579
-186.317
-197.081
-207.053
-215.531
-221.733
-224.708
-223.954
-219.654
-212.603
-204.402
-196.546
-189.722
-184.616
-182.154
-182.288
-183.665
-183.657
-178.017
-162.488
-134.17
-90.089
-26.994
56.811
161.104
283.301
418.008
558.985
700.38
835.03
954.55
1051.463
1119.618
1155.298
1157.657
1126.818
1063.823
972.625
859.73
732.466
598.615
464.927
336.932
220.735
121.83
42.816
-16.186
-56.68
-81.541
-93.56
-95.593
-92.141
-87.927
-85.88
-87.483
-92.909
-101.297
-111.91
-123.9
-135.356
-144.143
-149.083
-149.788
-146.695
-140.817
-133.021
-124.146
-115.28
-107.539
-101.622
-97.835
-96.149
-96.286
-98.006
-101.104
-105.312
-110.307
-115.809
-121.603
-127.471
-133.225
-138.637
-143.428
-147.404
-150.444
-152.478
-153.497
-153.519
-152.577
-150.745
-148.131
-144.824
-140.917
-136.493
-131.623
-126.402
-120.941
-115.351
-109.751
-104.223
-98.821
-93.581
-88.517
-83.626
-78.89
-74.274
-69.727
-65.217
-60.717
-56.207
-51.674
-47.093
-42.443
-37.71
-32.876
-27.922
-22.822
-17.536
-12.045
-6.35
-0.467
5.571
11.736
18.008
24.351
30.713
37.059
43.367
49.649
55.953
62.299
68.683
75.074
81.409
87.666
93.85
99.967
106.022
112.008
117.916
123.801
129.768
135.87
142.103
148.388
154.568
160.559
166.305
171.754
176.864
181.524
185.609
189.041
191.774
193.777
194.994
195.275
194.398
192.233
188.732
183.944
177.993
170.9
162.697
153.468
143.347
132.568
121.341
109.788
97.98
85.987
73.927
62.012
50.501
39.559
29.299
19.771
11.004
3.135
-3.754
-9.676
-14.726
-19.099
-22.937
-26.284
-29.151
-31.56
-33.564
-35.274
-36.799
-38.175
-39.439
-40.624
-41.786
-43.06
-44.523
-46.165
-47.921
-49.659
-51.293
-52.808
-54.196
-55.438
-56.511
-57.39
-58.072
-58.605
-59.016
-59.311
-59.47
-59.439
-59.2
-58.775
-58.209
-57.57
-56.907
-56.244
-55.613
-55.052
-54.587
-54.236
-53.996
-53.841
-53.756
-53.743
-53.808
-53.963
-54.214
-54.553
-54.974
-55.465
-56.016
-56.618
-57.256
-57.908
-58.562
-59.206
-59.835
-60.449
-61.044
-61.615
-62.156
-62.664
-63.134
-63.56
-63.937
-64.257
-64.515
-64.708
-64.834
-64.894
-64.887
-64.817
-64.684
-64.494
-64.25
-63.956
-63.615
-63.232
-62.813
-62.363
-61.888
-61.393
-60.886
-60.372
-59.859
-59.351
-58.856
-58.378
-57.921
-57.488
-57.083
-56.709
-56.367
-56.058
-55.783
-55.54
-55.33
-55.151
-55
-54.874
-54.769
-54.678
-54.598
-54.522
-54.443
-54.352
-54.241
-54.101
-53.923
-53.696
-53.41
-53.053
-52.613
-52.08
-51.443
-50.69
-49.813
-48.801
-47.645
-46.337
-44.871
-43.239
-41.438
-39.463
-37.314
-34.988
-32.49
-29.821
-26.988
-24.003
-20.876
-17.62
-14.25
-10.783
-7.236
-3.628
0.023
3.7
7.384
11.053
14.684
18.252
21.73
25.091
28.304
31.338
34.166
36.757
39.089
41.143
42.896
44.331
45.424
46.139
46.448
46.334
45.777
44.769
43.316
41.428
39.145
36.529
33.641
30.544
27.295
23.933
20.507
17.076
13.696
10.454
7.428
4.665
2.223
0.134
-1.606
-3.014
-4.186
-5.298
-6.517
-7.996
-9.857
-12.186
-15.116
-18.822
-23.461
-29.197
-36.124
-44.326
-54.005
-65.179
-77.626
-90.91
-104.204
-116.609
-127.488
-136.091
-141.464
-143.13
-141.046
-135.734
-128.731
-121.424
-114.548
-108.968
-105.606
-104.654
-105.388
-105.639
-101.483
-89.094
-65.168
-26.215
31.233
110.361
210.514
326.358
451.694
579.526
709.279
847.241
990.178
1126.974
1236.02
1284.311
1257.388
1161.308
1014.199
847.778
681.255
516.338
356.713
206.941
77.424
-12.813
-59.336
-72.529
-64.926
-54.127
-48.083
-43.231
-39.599
-36.473
-34.406
-38.1
-48.152
-62.298
-78.708
-94.165
-105.749
-112.693
-114.667
-111.697
-104.879
-95.422
-84.389
-73.177
-63.067
-54.654
-48.274
-44.013
-41.62
-40.922
-41.751
-43.795
-46.759
-50.392
-54.495
-58.942
-63.586
-68.218
-72.599
-76.478
-79.684
-82.14
-83.792
-84.622
-84.641
-83.868
-82.367
-80.232
-77.539
-74.368
-70.79
-66.862
-62.668
-58.302
-53.854
-49.422
-45.072
-40.83
-36.715
-32.73
-28.857
-25.081
-21.369
-17.674
-13.962
-10.206
-6.38
-2.465
1.562
5.729
10.06
14.58
19.307
24.254
29.43
34.84
40.485
46.361
52.459
58.766
65.268
71.952
78.802
85.803
92.935
100.175
107.499
114.881
122.291
129.696
137.063
144.354
151.531
158.557
165.391
171.995
178.331
184.359
190.043
195.346
200.234
204.672
208.632
212.085
215.004
217.367
219.154
220.35
220.942
220.92
220.279
219.017
217.136
214.642
211.543
207.851
203.584
198.76
193.401
187.534
181.186
174.391
167.183
159.598
151.675
143.454
134.977
126.288
117.429
108.443
99.375
90.266
81.159
72.096
63.115
54.254
45.551
37.038
28.747
20.708
12.948
5.491
-1.642
-8.432
-14.862
-20.919
-26.593
-31.874
-36.757
-41.239
-45.319
-49
-52.285
-55.181
-57.698
-59.845
-61.637
-63.087
-64.213
-65.032
-65.564
-65.827
-65.844
-65.635
-65.22
-64.622
-63.863
-62.961
-61.939
-60.816
-59.61
-58.338
-57.019
-55.667
-54.298
-52.925
-51.56
-50.215
-48.903
-47.634
-46.418
-45.264
-44.175
-43.16
-42.223
-41.369
-40.601
-39.921
-39.329
-38.825
-38.412
-38.09
-37.859
-37.714
-37.651
-37.661
-37.739
-37.884
-38.097
-38.377
-38.72
-39.124
-39.587
-40.109
-40.693
-41.331
-42.019
-42.746
-43.501
-44.287
-45.103
-45.956
-46.856
-47.776
-48.698
-49.597
-50.437
-51.234
-52.007
-52.738
-53.427
-54.062
-54.591
-55.097
-55.676
-56.165
-56.46
-56.431
-55.876
-55.011
-54.134
-53.134
-51.945
-50.914
-50.213
-50.274
-51.658
-53.804
-56.067
-58.442
-60.76
-62.612
-63.849
-63.762
-61.532
-57.861
-53.476
-48.512
-43.351
-38.213
-33.097
-28.647
-25.543
-23.273
-21.361
-19.644
-17.752
-15.706
-13.638
-11.234
-8.213
-4.802
-1.178
2.53
6.098
9.578
13.044
16.397
19.577
22.586
25.399
28.023
30.475
32.696
34.642
36.287
37.593
38.549
39.139
39.35
39.191
38.673
37.809
36.598
35.022
33.072
30.759
28.09
25.082
21.746
18.078
14.11
9.903
5.53
1.088
-3.365
-7.816
-12.266
-16.744
-21.203
-25.517
-29.562
-33.203
-36.362
-39.06
-41.234
-42.732
-43.6
-43.999
-44.369
-45.492
-47.735
-51.02
-55.214
-60.038
-65.247
-70.822
-75.96
-78.977
-78.815
-74.987
-67.625
-57.791
-46.125
-32.6
-18.316
-5.581
3.388
6.377
2.328
-8.041
-24.257
-46.278
-72.808
-101.21
-127.612
-146.73
-153.845
-145.636
-118.735
-69.909
2.756
100.3
221.61
362.13
516.533
677.5
834.244
978.439
1103.579
1204.942
1285.708
1343.96
1369.304
1350.914
1270.987
1124.012
926.766
704.31
493.319
323.091
200.671
121.644
69.124
26.271
-11.77
-43.761
-63.541
-67.329
-58.658
-44.323
-32.161
-26.581
-27.9
-34.92
-45.591
-58.206
-71.217
-82.588
-90.418
-93.797
-92.854
-88.39
-81.557
-73.445
-64.994
-57.182
-50.935
-46.741
-44.683
-44.608
-46.17
-49.031
-52.942
-57.615
-62.746
-68.117
-73.509
-78.687
-83.445
-87.547
-90.806
-93.123
-94.435
-94.715
-93.977
-92.267
-89.667
-86.294
-82.254
-77.637
-72.531
-67.013
-61.181
-55.149
-49.028
-42.933
-36.942
-31.108
-25.467
-20.04
-14.83
-9.828
-5.004
-0.32
4.255
8.742
13.16
17.526
21.859
26.186
30.529
34.91
39.349
