Name,Aleksandre Beruashvili
Date of Birth,"Dec 20, 1998"
Recorded Date,2024-05-27 21:09:01 +0400
Classification,Sinus Rhythm
Symptoms,
Software Version,1.90
Device,"Watch7,2"
Sample Rate,512 hertz


Lead,Lead I
Unit,µV

-98.339
-95.382
-92.016
-88.298
-84.304
-80.162
-76.054
-72.132
-68.581
-65.592
-63.309
-61.894
-61.456
-62.148
-64.31
-68.124
-73.545
-80.371
-88.012
-95.775
-103.191
-109.505
-113.604
-114.869
-113.219
-109.183
-104.384
-100.689
-99.57
-102.766
-112.401
-128.176
-147.119
-165.958
-179.601
-187.005
-192.609
-195.208
-189.604
-164.096
-99.874
10.686
163.71
347.827
543.018
733.711
909.327
1054.8
1155.233
1197.227
1168.552
1071.241
915.996
712.205
476.36
224.281
-26.279
-246.447
-414.491
-520.934
-566.621
-567.373
-540.643
-495.975
-441.331
-384.327
-330.784
-287.154
-255.171
-228.329
-200.993
-171.727
-142.908
-121.106
-110.413
-110.193
-117.579
-128.567
-140.238
-150.663
-158.313
-162.611
-163.44
-161.214
-156.814
-150.945
-144.343
-138.11
-133.323
-130.586
-130.002
-131.25
-133.768
-137.059
-140.739
-144.329
-147.283
-149.291
-150.24
-150.113
-149.008
-146.983
-143.994
-140.106
-135.492
-130.262
-124.536
-118.413
-111.936
-105.202
-98.328
-91.364
-84.336
-77.249
-70.078
-62.829
-55.527
-48.176
-40.802
-33.409
-25.963
-18.449
-10.856
-3.162
4.643
12.575
20.663
28.908
37.289
45.784
54.362
62.999
71.678
80.376
89.066
97.726
106.325
114.834
123.227
131.475
139.545
147.406
155.019
162.354
169.383
176.08
182.417
188.368
193.906
199.006
203.647
207.807
211.463
214.597
217.191
219.23
220.701
221.597
221.91
221.635
220.772
219.323
217.291
214.685
211.514
207.793
203.536
198.762
193.491
187.747
181.554
174.94
167.932
160.56
152.858
144.859
136.595
128.104
119.421
110.582
101.622
92.58
83.489
74.385
65.304
56.28
47.345
38.532
29.872
21.393
13.123
5.088
-2.689
-10.188
-17.388
-24.273
-30.829
-37.043
-42.905
-48.406
-53.54
-58.304
-62.694
-66.711
-70.357
-73.633
-76.546
-79.101
-81.308
-83.175
-84.713
-85.934
-86.851
-87.478
-87.828
-87.919
-87.766
-87.385
-86.796
-86.015
-85.061
-83.953
-82.709
-81.347
-79.886
-78.343
-76.735
-75.079
-73.391
-71.687
-69.981
-68.289
-66.624
-65.001
-63.43
-61.925
-60.495
-59.152
-57.903
-56.755
-55.716
-54.791
-53.984
-53.3
-52.741
-52.31
-52.006
-51.828
-51.775
-51.845
-52.031
-52.328
-52.729
-53.227
-53.812
-54.476
-55.21
-56.004
-56.846
-57.728
-58.64
-59.569
-60.506
-61.439
-62.357
-63.249
-64.107
-64.92
-65.678
-66.375
-67.005
-67.566
-68.058
-68.479
-68.829
-69.109
-69.323
-69.473
-69.562
-69.589
-69.553
-69.458
-69.312
-69.126
-68.91
-68.674
-68.429
-68.184
-67.954
-67.751
-67.579
-67.433
-67.316
-67.232
-67.2
-67.256
-67.426
-67.724
-68.167
-68.763
-69.513
-70.417
-71.447
-72.551
-73.684
-74.803
-75.885
-76.93
-77.916
-78.807
-79.558
-80.092
-80.357
-80.326
-79.958
-79.244
-78.219
-76.936
-75.503
-74.074
-72.775
-71.759
-71.177
-71.138
-71.773
-73.166
-75.452
-78.919
-83.731
-89.866
-97.15
-105.091
-113.104
-120.754
-127.367
-131.967
-133.908
-132.965
-129.524
-124.848
-120.501
-117.875
-118.461
-124.111
-134.722
-147.903
-161.117
-170.483
-176.057
-182.435
-188.159
-187.665
-167.542
-107.983
-3.777
139.04
304.788
470.697
628.628
777.836
916.556
1039.231
1125.857
1152.1
1101.773
972.515
776.32
534.343
271.29
10.363
-224.61
-409.913
-528.8
-573.988
-549.587
-475.265
-376.494
-277.189
-199.276
-148.56
-120.017
-105.075
-89.04
-67.521
-44.092
-22.446
-10.596
-10.903
-19.512
-33.284
-47.361
-57.6
-63.268
-64.391
-61.309
-55.182
-47.09
-37.645
-27.934
-19.456
-12.931
-8.675
-6.747
-6.588
-7.628
-9.48
-11.583
-13.326
-14.388
-14.578
-13.833
-12.287
-10.025
-7.102
-3.613
0.357
4.748
9.514
14.614
20.014
25.647
31.42
37.265
43.135
49.005
54.863
60.708
66.541
72.375
78.239
84.154
90.125
96.157
102.251
108.413
114.659
121.005
127.466
134.054
140.775
147.634
154.629
161.755
169.001
176.351
183.785
191.286
198.838
206.424
214.028
221.631
229.209
236.741
244.204
251.571
258.816
265.91
272.822
279.524
285.989
292.189
298.097
303.687
308.933
313.813
318.303
322.384
326.034
329.236
331.974
334.233
336
337.267
338.023
338.264
337.986
337.19
335.878
334.054
331.727
328.906
325.605
321.838
317.624
312.982
307.935
302.506
296.723
290.613
284.206
277.534
270.627
263.519
256.241
248.827
241.31
233.722
226.096
218.461
210.85
203.292
195.816
188.45
181.22
174.152
167.267
160.589
154.137
147.928
141.98
136.305
130.917
125.824
121.036
116.557
112.393
108.545
105.013
101.796
98.889
96.289
93.988
91.979
90.253
88.799
87.606
86.662
85.954
85.467
85.189
85.103
85.196
85.45
85.851
86.383
87.029
87.775
88.604
89.501
90.45
91.438
92.448
93.468
94.484
95.483
96.453
97.382
98.261
99.08
99.83
100.502
101.091
101.587
101.987
102.284
102.474
102.554
102.52
102.371
102.105
101.725
101.231
100.624
99.908
99.085
98.161
97.14
96.029
94.834
93.562
92.22
90.82
89.369
87.878
86.356
84.814
83.263
81.713
80.175
78.66
77.176
75.733
74.342
73.009
71.746
70.558
69.451
68.433
67.51
66.686
65.967
65.352
64.838
64.419
64.09
63.841
63.66
63.535
63.454
63.409
63.396
63.409
63.442
63.487
63.535
63.575
63.597
63.585
63.526
63.413
63.248
63.038
62.801
62.546
62.27
61.966
61.608
61.171
60.634
59.971
59.155
58.177
57.051
55.8
54.471
53.081
51.608
50.042
48.368
46.604
44.802
43.02
41.314
39.769
38.508
37.555
36.847
36.2
35.292
33.832
31.613
28.498
24.38
19.468
14.282
9.436
5.69
3.639
3.534
5.476
9.552
15.292
21.693
27.834
32.683
35.429
35.776
33.291
27.136
17.016
3.127
-14.562
-35.623
-59.493
-86.114
-114.236
-140.81
-162.98
-176.265
-175.285
-157.547
-119.763
-60.663
16.773
111.346
220.031
340.355
474.228
621.477
778.415
932.622
1061.536
1138.61
1140.5
1060.436
906.28
695.368
454.169
204.704
-32.37
-232.018
-378.579
-465.712
-497.074
-492.467
-472.354
-446.862
-419.614
-386.635
-342.399
-289.152
-232.791
-179.238
-134.407
-101.07
-79.181
-67.761
-64.89
-68.262
-75.864
-86.137
-97.514
-107.966
-115.698
-119.841
-120.324
-117.765
-113.045
-106.766
-99.52
-92.345
-86.377
-82.204
-79.933
-79.246
-79.554
-80.472
-81.749
-82.98
-83.707
-83.652
-82.687
-80.857
-78.352
-75.288
-71.711
-67.689
-63.289
-58.59
-53.679
-48.627
-43.489
-38.307
-33.108
-27.912
-22.732
-17.568
-12.409
-7.231
-1.993
3.332
8.756
14.286
19.92
25.667
31.542
37.562
43.738
50.081
56.59
63.268
70.114
77.121
84.273
91.551
98.925
106.371
113.869
121.396
128.928
136.439
143.9
151.282
158.553
165.682
172.632
179.366
185.846
192.033
197.892
203.389
208.489
213.16
217.37
221.091
224.295
226.957
229.054
230.564
231.469
231.753
231.403
230.41
228.768
226.473
223.525
219.928
215.689
210.817
205.327
199.233
192.556
185.317
177.543
169.26
160.499
151.294
141.68
131.696
121.379
110.772
99.915
88.849
77.616
66.259
54.819
43.337
31.852
20.405
9.032
-2.229
-13.343
-24.276
-34.997
-45.477
-55.687
-65.603
-75.202
-84.463
-93.367
-101.898
-110.043
-117.789
-125.128
-132.051
-138.556
-144.638
-150.3
-155.541
-160.368
-164.786
-168.802
-172.427
-175.67
-178.544
-181.062
-183.237
-185.084
-186.618
-187.855
-188.811
-189.503
-189.946
-190.158
-190.155
-189.953
-189.569
-189.018
-188.317
-187.482
-186.529
-185.472
-184.328
-183.112
-181.839
-180.524
-179.182
-177.826
-176.471
-175.129
-173.814
-172.537
-171.31
-170.144
-169.049
-168.035
-167.112
-166.286
-165.567
-164.962
-164.476
-164.117
-163.89
-163.8
-163.852
-164.048
-164.393
-164.889
-165.538
-166.34
-167.295
-168.401
-169.657
-171.06
-172.604
-174.285
-176.094
-178.024
-180.065
-182.207
-184.437
-186.742
-189.108
-191.52
-193.963
-196.421
-198.877
-201.313
-203.714
-206.06
-208.337
-210.528
-212.616
-214.584
-216.416
-218.098
-219.616
-220.958
-222.109
-223.057
-223.795
-224.316
-224.616
-224.692
-224.542
-224.166
-223.567
-222.749
-221.716
-220.472
-219.018
-217.36
-215.507
-213.474
-211.275
-208.926
-206.442
-203.839
-201.135
-198.352
-195.504
-192.595
-189.635
-186.634
-183.614
-180.614
-177.665
-174.79
-172.011
-169.347
-166.805
-164.392
-162.094
-159.87
-157.687
-155.517
-153.343
-151.176
-149.006
-146.805
-144.545
-142.166
-139.623
-136.907
-133.978
-130.812
-127.457
-123.976
-120.496
-117.206
-114.212
-111.613
-109.557
-108.135
-107.485
-107.76
-109.007
-111.37
-115.138
-120.424
-127.2
-135.251
-143.869
-152.315
-160.035
-166.167
-169.725
-170.178
-167.456
-162.216
-156.137
-151.134
-148.794
-150.87
-159.426
-174.224
-192.38
-210.776
-224.645
-232.824
-239.293
-242.577
-237.09
-211.388
-148.077
-40.946
105.077
277.875
458.917
636.859
804.825
951.507
1062.74
1117.497
1095.387
990.272
807.719
566.209
294.228
19.896
-228.523
-427.876
-565.702
-641.548
-664.277
-645.357
-598.861
-533.805
-460.087
-393.752
-342.124
-309.499
-293.081
-278.503
-259.865
-237.067
-212.833
-196.379
-191.082
-194.601
-204.34
-215.582
-224.676
-230.404
-232.155
-230.054
-224.837
-217.292
-208.057
-197.862
-187.831
-179.09
-172.321
-167.807
-165.356
-164.484
-164.743
-165.69
-166.794
-167.515
-167.51
-166.627
-164.845
-162.256
-158.945
-154.965
-150.392
-145.32
-139.805
-133.884
-127.599
-120.983
-114.101
-107.051
-99.892
-92.665
-85.397
-78.089
-70.745
-63.365
-55.926
-48.395
-40.757
-33.001
-25.123
-17.127
-9.003
-0.737
7.681
16.26
25.004
33.912
42.978
52.193
61.539
70.991
80.523
90.103
99.701
109.291
118.844
128.331
137.723
146.985
156.088
164.999
173.685
182.109
190.236
198.031
205.46
212.491
219.092
225.232
230.881
236.013
240.603
244.627
248.064
250.896
253.105
254.679
255.608
255.886
255.507
254.473
252.786
250.453
247.483
243.891
239.693
234.908
229.558
223.669
217.268
210.384
203.05
195.299
187.165
178.688
169.904
160.853
151.575
142.112
132.503
122.791
113.015
103.217
93.436
83.71
74.077
64.574
55.235
46.092
37.177
28.518
20.142
12.072
4.33
-3.065
-10.098
-16.756
-23.028
-28.907
-34.386
-39.463
-44.138
-48.413
-52.292
-55.78
-58.885
-61.617
-63.987
-66.008
-67.693
-69.059
-70.12
-70.894
-71.399
-71.653
-71.677
-71.487
-71.106
-70.551
-69.842
-68.999
-68.04
-66.983
-65.846
-64.646
-63.399
-62.119
-60.82
-59.515
-58.215
-56.931
-55.673
-54.449
-53.267
-52.132
-51.051
-50.028
-49.066
-48.17
-47.341
-46.581
-45.892
-45.274
-44.728
-44.254
-43.853
-43.522
-43.262
-43.071
-42.949
-42.893
-42.902
-42.975
-43.109
-43.304
-43.559
-43.871
-44.241
-44.667
-45.148
-45.684
-46.273
-46.914
-47.606
-48.348
-49.138
-49.973
-50.854
-51.779
-52.743
-53.746
-54.783
-55.852
-56.947
-58.063
-59.194
-60.334
-61.475
-62.61
-63.731
-64.829
-65.896
-66.921
-67.896
-68.811
-69.657
-70.422
-71.097
-71.672
-72.136
-72.483
-72.702
-72.787
-72.729
-72.525
-72.172
-71.67
-71.018
-70.218
-69.27
-68.18
-66.951
-65.588
-64.093
-62.471
-60.724
-58.861
-56.893
-54.834
-52.695
-50.49
-48.23
-45.931
-43.612
-41.282
-38.945
-36.607
-34.278
-31.976
-29.736
-27.584
-25.539
-23.618
-21.837
-20.2
-18.712
-17.356
-16.09
-14.88
-13.695
-12.516
-11.347
-10.178
-8.98
-7.721
-6.341
-4.799
-3.084
-1.164
0.98
3.309
5.763
8.226
10.52
12.534
14.162
15.281
15.813
15.639
14.637
12.747
9.804
5.564
-0.069
-7.128
-15.465
-24.527
-33.724
-42.51
-49.995
-55.242
-57.685
-56.964
-53.345
-48.196
-43.134
-39.642
-39.8
-44.653
-52.974
-63.429
-73.924
-83.683
-96.706
-114.97
-134.672
-145.187
-127.175
-64.625
45.348
194.089
363.772
537.31
706.639
867.289
1009.771
1118.716
1174.331
1157.956
1067.042
910.779
702.127
462.892
211.952
-31.648
-240.56
-397.08
-494.736
-537.614
-546.02
-539.237
-525.271
-505.544
-474.94
-428.771
-370.412
-306.916
-245.219
-191.483
-149.062
-118.877
-100.582
-92.751
-93.184
-99.453
-109.639
-121.816
-133.394
-141.978
-146.202
-145.629
-140.772
-132.657
-122.079
-109.858
-97.335
-85.958
-76.605
-69.58
-64.674
-61.309
-58.991
-57.353
-55.873
-53.969
-51.305
-47.73
-43.26
-38.089
-32.361
-26.146
-19.545
-12.658
-5.549
1.704
9.041
16.424
23.778
31.048
38.204
45.217
52.082
58.81
65.413
71.92
78.376
84.806
91.227
97.651
104.083
110.54
117.046
123.621
130.287
137.06
143.951
150.972
158.131
165.423
172.842
180.372
187.997
195.7
203.468
211.286
219.137
227.002
234.858
242.681
250.449
258.132
265.7
273.119
280.355
287.376
294.148
300.638
306.814
312.643
318.095
323.138
327.745
331.887
335.539
338.677
341.279
343.326
344.8
345.69
345.983
345.672
344.752
343.223
341.087
338.347
335.013
331.096
326.609
321.571
316.001
309.923
303.36
296.342
288.899
281.062
272.867
264.348
255.543
246.488
237.223
227.785
218.214
208.548
198.825
189.083
179.359
169.689
160.106
150.645
141.336
132.208
123.287
114.6
106.167
98.01
90.147
82.591
75.357
68.456
61.894
55.679
49.813
44.298
39.133
34.314
29.839
25.699
21.887
18.394
15.208
12.317
9.708
7.367
5.277
3.423
1.789
0.357
-0.892
-1.973
-2.905
-3.705
-4.39
-4.977
-5.482
-5.92
-6.307
-6.656
-6.98
-7.292
-7.604
-7.924
-8.264
-8.632
-9.034
-9.479
-9.972
-10.519
-11.125
-11.792
-12.525
-13.325
-14.195
-15.137
-16.151
-17.237
-18.394
-19.623
-20.922
-22.29
-23.723
-25.22
-26.778
-28.393
-30.064
-31.785
-33.555
-35.368
-37.222
-39.114
-41.041
-42.999
-44.985
-46.996
-49.028
-51.08
-53.147
-55.225
-57.311
-59.401
-61.49
-63.576
-65.654
-67.719
-69.767
-71.792
-73.791
-75.757
-77.686
-79.57
-81.404
-83.181
-84.896
-86.544
-88.119
-89.614
-91.024
-92.345
-93.572
-94.702
-95.729
-96.646
-97.451
-98.141
-98.713
-99.165
-99.496
-99.707
-99.798
-99.778
-99.653
-99.429
-99.112
-98.709
-98.229
-97.682
-97.082
-96.438
-95.76
-95.058
-94.346
-93.641
-92.961
-92.32
-91.729
-91.195
-90.729
-90.346
-90.056
-89.865
-89.778
-89.794
-89.92
-90.173
-90.566
-91.103
-91.786
-92.612
-93.57
-94.651
-95.837
-97.092
-98.385
-99.684
-100.956
-102.181
-103.337
-104.401
-105.367
-106.23
-106.977
-107.599
-108.052
-108.276
-108.298
-108.205
-108.08
-108.006
-108.079
-108.426
-109.373
-111.421
-114.863
-119.712
-125.839
-133.083
-141.318
-150.399
-159.677
-167.814
-173.656
-176.605
-176.576
-173.87
-168.575
-160.621
-150.759
-141.167
-134.2
-131.6
-134.349
-142.405
-155.982
-175.962
-200.622
-224.589
-242.521
-249.09
-243.782
-232.362
-215.258
-188.112
-141.065
-59.373
60.922
213.586
386.52
563.154
732.22
885.014
1008.591
1087.111
1101.942
1038.874
896.672
685.155
425.872
146.846
-123.721
-357.509
-535.137
-647.725
-696.864
-694.384
-653.854
-589.512
-513.968
-438.981
-374.601
-324.767
-288.961
-260.276
-232.2
-204.133
-178.323
-160.55
-154.611
-159.122
-170.492
-183.875
-195.217
-202.432
-204.925
-202.989
-197.174
-188.308
-177.419
-165.485
-153.796
-143.673
-135.739
-130.171
-126.791
-125.071
-124.483
-124.555
-124.728
-124.438
-123.378
-121.422
-118.573
-114.959
-110.685
-105.817
-100.446
-94.672
-88.56
-82.165
-75.544
-68.736
-61.813
-54.861
-47.934
-41.077
-34.318
-27.647
-21.048
-14.507
-7.988
-1.471
5.04
11.573
18.156
24.75
31.337
37.912
44.449
50.997
57.631
64.321
71.004
77.849
85.048
92.466
100.096
107.958
115.597
124.168
134.793
145.821
156.739
164.528
165.582
163.839
161.913
163.707
174.595
189.763
205.128
217.882
223.407
224.952
225.816
226.71
229.634
233.39
236.44
239.052
241.014
242.41
243.534
244.171
244.153
243.525
242.296
240.445
237.979
234.914
231.266
227.075
222.388
217.209
211.544
205.42
198.861
191.894
184.549
176.855
168.84
160.54
151.992
143.232
134.297
125.223
116.047
106.803
97.529
88.258
79.024
69.86
60.796
51.863
43.088
34.498
26.117
17.969
10.073
2.449
-4.888
-11.924
-18.647
-25.048
-31.12
-36.858
-42.259
-47.323
-52.051
-56.445
-60.511
-64.256
-67.688
-70.816
-73.652
-76.208
-78.496
-80.532
-82.33
-83.904
-85.271
-86.444
-87.441
-88.276
-88.964
-89.521
-89.96
-90.297
-90.546
-90.719
-90.829
-90.89
-90.911
-90.905
-90.881
-90.849
-90.817
-90.793
-90.785
-90.799
-90.841
-90.917
-91.032
-91.19
-91.396
-91.652
-91.962
-92.329
-92.756
-93.243
-93.793
-94.407
-95.086
-95.833
-96.648
-97.533
-98.488
-99.514
-100.614
-101.787
-103.034
-104.354
-105.749
-107.216
-108.756
-110.367
-112.047
-113.793
-115.602
-117.472
-119.398
-121.378
-123.404
-125.47
-127.57
-129.696
-131.84
-133.992
-136.142
-138.277
-140.386
-142.457
-144.479
-146.436
-148.315
-150.101
-151.778
-153.331
-154.747
-156.011
-157.106
-158.017
-158.733
-159.24
-159.527
-159.584
-159.401
-158.971
-158.289
-157.354
-156.163
-154.718
-153.018
-151.067
-148.87
-146.433
-143.762
-140.863
-137.743
-134.412
-130.888
-127.188
-123.329
-119.33
-115.211
-110.995
-106.707
-102.367
-97.986
-93.58
-89.165
-84.765
-80.422
-76.164
-72.009
-67.975
-64.08
-60.336
-56.747
-53.298
-49.946
-46.658
-43.411
-40.195
-37.026
-33.899
-30.792
-27.675
-24.506
-21.27
-17.979
-14.63
-11.193
-7.685
-4.177
-0.796
2.258
4.845
6.911
8.4
9.237
9.318
8.516
6.72
3.922
0.089
-4.939
-11.232
-18.733
-27.152
-35.783
-43.816
-50.611
-55.489
-57.619
-56.53
-52.212
-45.175
-36.858
-29.066
-23.338
-21.233
-24.713
-33.818
-45.804
-57.69
-65.396
-67.109
-66.667
-65.461
-59.313
-40.009
7.288
94.986
222.859
384.154
566.082
750.707
924.66
1071.778
1171.451
1207.062
1165.563
1045.958
860.479
627.771
371.079
113.051
-123.631
-318.448
-458.255
-539.286
-568.905
-559.302
-522.103
-465.948
-397.974
-328.229
-266.378
-219.257
-187.196
-162.628
-139.029
-114.196
-90.186
-73.155
-66.316
-68.437
-77.102
-88.325
-98.895
-107.497
-112.888
-114.64
-113.26
-109.252
-103.053
-95.293
-86.633
-77.863
-70.117
-64.008
-59.498
-56.345
-54.081
-52.298
-50.766
-49.147
-46.969
-43.974
-40.07
-35.282
-29.811
-23.792
-17.272
-10.337
-3.07
4.449
12.128
19.893
27.69
35.475
43.217
50.893
58.48
65.97
73.362
80.67
87.931
95.166
102.382
109.584
116.771
123.947
131.132
138.34
145.583
152.868
160.197
167.574
175.004
182.484
190.004
197.55
205.103
212.646
220.169
227.657
235.096
242.469
249.758
256.943
264.006
270.925
277.676
284.232
290.569
296.658
302.477
308
313.202
318.059
322.548
326.647
330.333
333.588
336.392
338.726
340.575
341.925
342.764
343.084
342.875
342.132
340.854
339.041
336.694
333.819
330.422
326.513
322.104
317.21
311.846
306.032
299.788
293.135
286.099
278.707
270.986
262.964
254.673
246.143
237.405
228.492
219.437
210.272
201.029
191.741
182.438
173.152
163.914
154.751
145.69
136.759
127.982
119.382
110.979
102.794
94.844
87.144
79.711
72.555
65.687
59.116
52.849
46.892
41.247
35.918
30.905
26.206
21.82
17.741
13.965
10.485
7.292
4.377
1.731
-0.66
-2.807
-4.722
-6.421
-7.916
-9.222
-10.354
-11.325
-12.152
-12.847
-13.426
-13.903
-14.291
-14.605
-14.859
-15.065
-15.237
-15.387
-15.53
-15.676
-15.837
-16.026
-16.254
-16.532
-16.871
-17.28
-17.77
-18.35
-19.029
-19.814
-20.711
-21.728
-22.868
-24.137
-25.538
-27.074
-28.748
-30.559
-32.51
-34.599
-36.828
-39.195
-41.697
-44.332
-47.096
-49.984
-52.992
-56.113
-59.338
-62.66
-66.07
-69.558
-73.113
-76.724
-80.378
-84.061
-87.758
-91.455
-95.135
-98.781
-102.375
-105.901
-109.34
-112.677
-115.894
-118.974
-121.901
-124.66
-127.235
-129.612
-131.778
-133.719
-135.423
-136.881
-138.084
-139.026
-139.7
-140.105
-140.239
-140.108
-139.716
-139.069
-138.174
-137.04
-135.678
-134.106
-132.339
-130.392
-128.282
-126.026
-123.646
-121.171
-118.626
-116.035
-113.421
-110.806
-108.215
-105.678
-103.222
-100.863
-98.616
-96.49
-94.506
-92.697
-91.095
-89.712
-88.561
-87.647
-86.968
-86.531
-86.324
-86.315
-86.469
-86.75
-87.128
-87.588
-88.128
-88.739
-89.404
-90.099
-90.774
-91.379
-91.887
-92.272
-92.541
-92.77
-93.014
-93.294
-93.77
-94.701
-96.323
-98.934
-102.621
-107.157
-112.499
-118.863
-126.199
-134.194
-142.415
-150.023
-156.54
-162.224
-166.98
-170.251
-171.736
-171.363
-169.414
-167.189
-165.887
-165.718
-167.12
-170.992
-178.034
-188.856
-203.807
-220.385
-233.744
-240.188
-235.631
-218.837
-194.565
-164.951
-129.399
-84.613
-17.578
82.774
219.853
392.569
585.789
776.714
942.469
1058.33
1105.621
1074.805
965.867
786.358
552.639
290.411
25.931
-209.394
-388.205
-503.119
-558.327
-572.592
-571.849
-567.647
-561.954
-549.839
-522.291
-479.308
-426.872
-372.186
-322.708
-281.836
-250.512
-228.662
-214.67
-207.005
-204.075
-203.863
-205.129
-206.503
-205.902
-202.287
-195.506
-185.701
-173.714
-160.552
-146.802
-133.396
-121.74
-112.521
-105.885
-101.742
-99.502
-98.579
-98.603
-99.044
-99.255
-98.874
-97.711
-95.704
-93.006
-89.701
-85.787
-81.304
-76.271
-70.751
-64.887
-58.796
-52.569
-46.325
-40.173
-34.208
-28.529
-23.179
-18.148
-13.415
-8.94
-4.69
-0.655
3.172
6.781
10.192
13.457
16.626
19.746
22.864
26.019
29.256
32.629
36.165
39.866
43.73
47.745
51.906
56.219
60.683
65.299
70.059
74.954
79.971
85.099
90.322
95.622
100.974
106.347
111.716
117.058
122.35
127.567
132.682
137.665
142.488
147.125
151.548
155.728
159.637
163.245
166.529
169.463
172.028
174.201
175.966
177.305
178.205
178.657
178.651
178.183
177.249
175.848
173.984
171.661
168.887
165.672
162.03
157.976
153.528
148.706
143.533
138.034
132.234
126.162
119.844
113.312
106.595
99.724
92.728
85.641
78.493
71.316
64.14
56.996
49.911
42.915
36.033
29.292
22.715
16.325
10.141
4.183
-1.532
-6.989
-12.174
-17.076
-21.686
-25.996
-30.001
-33.696
-37.081
-40.154
-42.919
-45.377
-47.534
-49.395
-50.97
-52.266
-53.293
-54.064
-54.589
-54.882
-54.956
-54.827
-54.509
-54.018
-53.369
-52.58
-51.666
-50.645
-49.535
-48.351
-47.112
-45.833
-44.533
-43.227
-41.931
-40.662
-39.435
-38.265
-37.167
-36.154
-35.241
-34.44
-33.763
-33.221
-32.825
-32.584
-32.507
-32.602
-32.874
-33.329
-33.973
-34.809
-35.84
-37.067
-38.491
-40.11
-41.923
-43.925
-46.113
-48.479
-51.016
-53.714
-56.564
-59.556
-62.677
-65.913
-69.25
-72.673
-76.165
-79.708
-83.285
-86.875
-90.458
-94.012
-97.519
-100.956
-104.303
-107.537
-110.638
-113.587
-116.363
-118.95
-121.328
-123.478
-125.385
-127.034
-128.414
-129.513
-130.321
-130.829
-131.034
-130.937
-130.541
-129.849
-128.865
-127.598
-126.056
-124.251
-122.196
-119.901
-117.378
-114.64
-111.706
-108.598
-105.34
-101.956
-98.468
-94.9
-91.275
-87.62
-83.953
-80.287
-76.638
-73.023
-69.467
-66.006
-62.673
-59.488
-56.475
-53.653
-51.024
-48.589
-46.331
-44.208
-42.19
-40.252
-38.371
-36.552
-34.774
-33
-31.219
-29.384
-27.471
-25.487
-23.377
-21.097
-18.702
-16.25
-13.862
-11.745
-9.929
-8.437
-7.518
-7.329
-8.079
-10.027
-13.036
-17.004
-22.265
-28.946
-36.765
-45.365
-53.749
-60.838
-66.531
-70.481
-71.762
-69.977
-65.31
-58.477
-51.547
-46.827
-45.281
-48.073
-57.112
-71.9
-89.327
-106.094
-117.126
-121.483
-124.796
-127.528
-125.069
-105.686
-50.015
50.701
192.627
363.29
542.57
716.115
875.256
1007.358
1097.838
1130.633
1091.242
980.946
812.435
599.285
360.475
112.18
-129.132
-335.933
-486.986
-574.076
-600.221
-585.456
-549.131
-497.655
-434.663
-361.375
-283.405
-215.872
-169.108
-144.628
-136.393
-133.486
-128.837
-122.301
-118.457
-120.441
-128.305
-139.292
-148.061
-151.964
-151.101
-145.983
-138.1
-128.782
-118.449
-108.029
-98.978
-91.926
-87.07
-84.375
-83.279
-83.253
-83.924
-84.759
-85.15
-84.774
-83.484
-81.242
-78.178
-74.383
-69.923
-64.902
-59.427
-53.575
-47.397
-40.945
-34.261
-27.419
-20.521
-13.638
-6.814
-0.074
6.573
13.127
19.589
25.975
32.318
38.643
44.96
51.279
57.603
63.942
70.318
76.753
83.264
89.864
96.563
103.366
110.275
117.286
124.39
131.571
138.814
146.103
153.425
160.766
168.111
175.442
182.74
189.982
197.147
204.211
211.144
217.917
224.502
230.868
236.986
242.827
248.363
253.564
258.402
262.852
266.886
270.482
273.615
276.263
278.407
280.028
281.112
281.647
281.62
281.026
279.858
278.115
275.8
272.915
269.467
265.467
260.927
255.864
250.297
244.246
237.737
230.796
223.452
215.738
207.687
199.334
190.717
181.871
172.836
163.651
154.354
144.985
135.581
126.182
116.823
107.543
98.376
89.355
80.512
71.876
63.477
55.338
47.484
39.935
32.71
25.824
19.291
13.122
7.325
1.906
-3.132
-7.789
-12.066
-15.966
-19.496
-22.665
-25.481
-27.958
-30.108
-31.946
-33.489
-34.752
-35.755
-36.516
-37.054
-37.388
-37.539
-37.527
-37.372
-37.091
-36.706
-36.233
-35.691
-35.096
-34.466
-33.816
-33.16
-32.514
-31.889
-31.301
-30.759
-30.275
-29.86
-29.521
-29.268
-29.109
-29.05
-29.098
-29.257
-29.532
-29.928
-30.448
-31.094
-31.868
-32.771
-33.804
-34.968
-36.26
-37.68
-39.226
-40.896
-42.687
-44.597
-46.623
-48.761
-51.008
-53.358
-55.806
-58.347
-60.974
-63.68
-66.455
-69.29
-72.176
-75.102
-78.058
-81.032
-84.009
-86.978
-89.925
-92.836
-95.698
-98.495
-101.214
-103.84
-106.362
-108.765
-111.041
-113.176
-115.162
-116.991
-118.659
-120.158
-121.485
-122.637
-123.61
-124.405
-125.021
-125.456
-125.71
-125.786
-125.686
-125.419
-124.994
-124.422
-123.714
-122.883
-121.943
-120.911
-119.802
-118.624
-117.386
-116.101
-114.79
-113.483
-112.21
-110.985
-109.821
-108.734
-107.73
-106.809
-105.96
-105.146
-104.333
-103.5
-102.631
-101.734
-100.812
-99.846
-98.809
-97.664
-96.378
-94.953
-93.397
-91.698
-89.871
-87.978
-86.125
-84.492
-83.246
-82.481
-82.272
-82.695
-83.836
-85.825
-88.768
-92.711
-97.716
-103.872
-111.243
-119.819
-129.342
-139.28
-149.008
-157.887
-165.268
-170.475
-172.843
-172.067
-168.609
-163.4
-157.537
-152.321
-148.933
-148.673
-153.301
-162.273
-171.766
-178.273
-177.941
-170.204
-160.965
-151.82
-139.094
-115.08
-63.658
26.536
156.588
322.163
508.423
696.095
865.108
992.621
1059.679
1051.852
966.99
814.36
607.283
368.67
119.713
-119.637
-322.904
-473.432
-565.241
-601.617
-602.099
-587.192
-566.687
-543.958
-514.857
-473.307
-421.179
-364.267
-308.456
-259.751
-221.035
-192.456
-173.322
-162.09
-156.803
-155.639
-157.229
-160.167
-162.525
-162.557
-159.347
-152.778
-143.492
-132.501
-120.597
-108.537
-97.464
-88.556
-82.433
-79.161
-78.327
-79.242
-81.33
-84.169
-87.237
-89.953
-91.957
-93.039
-93.124
-92.265
-90.437
-87.573
-83.668
-78.779
-72.996
-66.475
-59.406
-51.945
-44.263
-36.492
-28.707
-20.969
-13.304
-5.715
1.803
9.249
16.608
23.855
30.959
37.913
44.731
51.456
58.162
64.913
71.769
78.775
85.956
93.325
100.88
108.603
116.458
124.416
132.451
140.542
148.677
156.835
164.987
173.101
181.14
189.065
196.834
204.407
211.74
218.797
225.541
231.942
237.973
243.608
248.819
253.58
257.862
261.64
264.892
267.593
269.723
271.266
272.207
272.537
272.251
271.347
269.824
267.689
264.95
261.617
257.708
253.239
248.232
242.711
236.705
230.242
223.355
216.078
208.447
200.5
192.276
183.816
175.161
166.352
157.431
148.44
139.42
130.411
121.452
112.583
103.841
95.26
86.875
78.717
70.816
63.199
55.888
48.906
42.27
35.997
30.098
24.582
19.456
14.724
10.386
6.441
2.884
-0.292
-3.095
-5.537
-7.63
-9.388
-10.828
-11.968
-12.824
-13.419
-13.771
-13.903
-13.836
-13.592
-13.192
-12.66
-12.015
-11.279
-10.472
-9.614
-8.724
-7.818
-6.915
-6.03
-5.178
-4.371
-3.623
-2.942
-2.34
-1.822
-1.397
-1.069
-0.843
-0.723
-0.711
-0.808
-1.017
-1.337
-1.768
-2.308
-2.955
-3.707
-4.56
-5.511
-6.555
-7.69
-8.909
-10.21
-11.588
-13.039
-14.559
-16.142
-17.785
-19.484
-21.233
-23.029
-24.866
-26.739
-28.646
-30.582
-32.544
-34.526
-36.526
-38.538
-40.558
-42.58
-44.599
-46.607
-48.598
-50.565
-52.5
-54.396
-56.245
-58.04
-59.77
-61.428
-63.005
-64.489
-65.873
-67.144
-68.293
-69.311
-70.189
-70.92
-71.496
-71.909
-72.157
-72.236
-72.144
-71.878
-71.438
-70.826
-70.046
-69.106
-68.011
-66.764
-65.369
-63.832
-62.162
-60.369
-58.459
-56.438
-54.312
-52.09
-49.789
-47.428
-45.016
-42.549
-40.024
-37.441
-34.809
-32.158
-29.505
-26.863
-24.245
-21.667
-19.148
-16.714
-14.367
-12.075
-9.8
-7.505
-5.182
-2.873
-0.617
1.56
3.662
5.742
7.835
9.959
12.124
14.355
16.708
19.145
21.486
23.391
24.404
24.099
22.226
18.679
13.38
6.614
-1.108
-9.208
-16.694
-22.603
-26.242
-27.038
-24.719
-19.845
-13.368
-6.136
0.502
5.196
6.555
2.846
-7.212
-23.676
-45.544
-71.812
-101.317
-132.604
-163.329
-188.769
-202.781
-200.594
-180.219
-143.899
-95.761
-37.718
31.238
117.866
228.512
364.392
522.476
689.182
848.467
984.315
1078.269
1119.898
1100.198
1014.271
867.41
664.11
418.822
156.377
-97.151
-307.974
-452.641
-528.335
-544.301
-521.66
-478.911
-424.237
-362.208
-298.875
-245.893
-213.015
-204.625
-215.659
-230.698
-239.709
-237.971
-225.184
-208.737
-192.461
-176.547
-160.916
-143.181
-122.729
-102.05
-84.046
-70.828
-63.109
-60.032
-60.562
-64.122
-70.209
-77.771
-85.137
-91.102
-95.315
-98.161
-100.159
-101.464
-102.002
-101.803
-101.215
-100.499
-99.59
-98.102
-95.577
-91.826
-86.905
-81.01
-74.341
-67.03
-59.212
-51.098
-42.91
-34.797
-26.833
-19.004
-11.252
-3.567
4.033
11.514
18.821
25.939
32.881
39.678
46.387
53.055
59.713
66.4
73.158
80.011
86.965
94.006
101.091
108.19
115.287
122.371
129.44
136.482
143.478
150.409
157.253
163.988
170.591
177.038
183.297
189.34
195.144
200.689
205.962
210.946
215.622
219.97
223.973
227.612
230.873
233.737
236.187
238.208
239.786
240.911
241.577
241.777
241.507
240.764
239.55
237.867
235.719
233.112
230.056
226.559
222.635
218.296
213.559
208.441
202.962
197.142
191.005
184.574
177.876
170.936
163.782
156.442
148.945
141.318
133.591
125.791
117.949
110.091
102.246
94.441
86.703
79.055
71.521
64.123
56.882
49.817
42.943
36.276
29.831
23.618
17.65
11.934
6.478
1.287
-3.635
-8.285
-12.663
-16.77
-20.608
-24.18
-27.491
-30.548
-33.357
-35.925
-38.263
-40.38
-42.285
-43.991
-45.507
-46.846
-48.019
-49.038
-49.915
-50.66
-51.286
-51.803
-52.222
-52.553
-52.806
-52.989
-53.112
-53.184
-53.213
-53.207
-53.173
-53.117
-53.048
-52.97
-52.891
-52.816
-52.75
-52.697
-52.663
-52.651
-52.666
-52.711
-52.789
-52.903
-53.055
-53.248
-53.484
-53.765
-54.091
-54.465
-54.887
-55.359
-55.881
-56.454
-57.076
-57.747
-58.468
-59.237
-60.053
-60.915
-61.821
-62.767
-63.75
-64.768
-65.815
-66.886
-67.974
-69.072
-70.175
-71.274
-72.363
-73.43
-74.468
-75.468
-76.421
-77.319
-78.152
-78.911
-79.587
-80.174
-80.663
-81.049
-81.326
-81.488
-81.533
-81.462
-81.273
-80.97
-80.555
-80.03
-79.401
-78.673
-77.853
-76.943
-75.948
-74.873
-73.726
-72.522
-71.271
-69.988
-68.689
-67.388
-66.103
-64.855
-63.654
-62.505
-61.417
-60.398
-59.467
-58.657
-57.989
-57.476
-57.133
-56.971
-56.992
-57.19
-57.538
-57.981
-58.479
-58.994
-59.505
-60.019
-60.519
-60.98
-61.376
-61.653
-61.789
-61.787
-61.622
-61.273
-60.774
-60.195
-59.673
-59.422
-59.579
-60.228
-61.463
-63.344
-65.962
-69.426
-73.794
-79.097
-85.416
-92.916
-101.657
-111.587
-122.392
-133.373
-143.772
-152.892
-159.893
-163.812
-164.202
-161.023
-154.649
-146.773
-139.291
-133.563
-131.843
-135.303
-142.1
-150.374
-157.826
-162.92
-169.491
-180.04
-190.376
-190.86
-164.513
-96.085
17.251
169.696
347.452
532.411
711.551
868.313
983.3
1041.786
1028.681
942.766
796.091
600.941
377.076
141.868
-90.192
-295.88
-456.342
-561.908
-611.446
-620.442
-609.477
-590.055
-567.262
-538.511
-497.649
-446.079
-389.416
-333.177
-283.512
-243.437
-213.114
-192.598
-180.882
-175.913
-175.841
-179.413
-185.273
-191.954
-198.046
-201.873
-202.591
-200.541
-196.363
-190.651
-184.016
-177.033
-170.429
-165.198
-161.842
-160.272
-160.179
-161.089
-162.603
-164.443
-166.228
-167.457
-167.803
-167.121
-165.343
-162.491
-158.607
-153.717
-147.94
-141.493
-134.553
-127.251
-119.713
-112.032
-104.284
-96.536
-88.814
-81.1
-73.393
-65.701
-58.045
-50.469
-42.993
-35.612
-28.304
-21.027
-13.741
-6.417
0.98
8.491
16.139
23.935
31.871
39.914
48.04
56.231
64.468
72.739
81.026
89.306
97.555
105.746
113.851
121.84
129.68
137.336
144.771
151.954
158.856
165.452
171.717
177.625
183.149
188.265
192.949
197.18
200.936
204.194
206.937
209.148
210.817
211.934
212.493
212.491
211.928
210.807
209.135
206.921
204.176
200.917
197.161
192.927
188.239
183.121
177.6
171.707
165.471
158.925
152.104
145.043
137.778
130.348
122.788
115.136
107.429
99.704
91.995
84.338
76.766
69.311
62.005
54.875
47.947
41.246
34.792
28.605
22.7
17.089
11.784
6.791
2.116
-2.239
-6.273
-9.991
-13.395
-16.493
-19.294
-21.807
-24.046
-26.024
-27.756
-29.258
-30.546
-31.638
-32.553
-33.309
-33.924
-34.417
-34.806
-35.11
-35.346
-35.532
-35.682
-35.813
-35.939
-36.072
-36.224
-36.405
-36.624
-36.888
-37.204
-37.576
-38.008
-38.501
-39.058
-39.678
-40.36
-41.102
-41.902
-42.756
-43.661
-44.613
-45.607
-46.639
-47.705
-48.8
-49.919
-51.059
-52.217
-53.387
-54.567
-55.753
-56.944
-58.137
-59.33
-60.522
-61.712
-62.901
-64.089
-65.278
-66.468
-67.662
-68.862
-70.071
-71.291
-72.525
-73.776
-75.045
-76.336
-77.65
-78.99
-80.358
-81.754
-83.178
-84.63
-86.108
-87.611
-89.135
-90.675
-92.226
-93.782
-95.336
-96.881
-98.41
-99.913
-101.38
-102.801
-104.168
-105.471
-106.698
-107.838
-108.88
-109.815
-110.633
-111.324
-111.881
-112.294
-112.558
-112.67
-112.628
-112.432
-112.081
-111.573
-110.914
-110.106
-109.152
-108.055
-106.815
-105.437
-103.928
-102.3
-100.566
-98.738
-96.828
-94.85
-92.821
-90.758
-88.674
-86.571
-84.456
-82.34
-80.242
-78.198
-76.237
-74.372
-72.623
-70.999
-69.503
-68.136
-66.874
-65.667
-64.476
-63.263
-62.007
-60.713
-59.366
-57.936
-56.394
-54.681
-52.761
-50.633
-48.273
-45.662
-42.852
-39.912
-36.972
-34.242
-31.852
-29.912
-28.562
-27.905
-28.076
-29.222
-31.4
-34.697
-39.297
-45.29
-52.67
-61.22
-70.331
-79.327
-87.62
-94.481
-99.113
-100.878
-99.435
-95.301
-89.791
-84.272
-80.171
-78.816
-81.408
-89.336
-101.707
-114.502
-123.807
-125.342
-118.642
-108.201
-92.96
-67.826
-23.292
54.192
167.284
309.156
468.431
630.031
783.9
921.99
1031.808
1098.243
1104.158
1037.57
898.424
694.684
446.036
180.547
-73.88
-284.856
-431.167
-512.986
-539.12
-531.104
-509.793
-477.358
-435.499
-386.305
-330.045
-278.562
-238.486
-205.972
-179.371
-153.521
-126.981
-105.821
-92.526
-88.021
-91.609
-99.287
-108.508
-117.399
-123.898
-127.413
-127.859
-125.289
-120.276
-113.326
-104.89
-95.998
-87.946
-81.497
-76.93
-74.136
-72.647
-72.051
-72.086
-72.31
-72.173
-71.356
-69.691
-67.159
-63.933
-60.131
-55.802
-51.028
-45.894
-40.456
-34.781
-28.922
-22.907
-16.799
-10.645
-4.469
1.701
7.863
14.022
20.187
26.384
32.653
39.016
45.484
52.063
58.751
65.56
72.505
79.598
86.85
94.266
101.847
109.595
117.507
125.572
133.77
142.077
150.465
158.909
167.385
175.866
184.325
192.735
201.062
209.276
217.345
225.235
232.909
240.33
247.46
254.263
260.706
266.756
272.38
277.547
282.23
286.402
290.039
293.118
295.619
297.525
298.819
299.491
299.533
298.937
297.703
295.83
293.325
290.195
286.453
282.114
277.196
271.721
265.714
259.203
252.219
244.794
236.964
228.765
220.239
211.424
202.364
193.101
183.677
174.135
164.518
154.867
145.225
135.63
126.122
116.738
107.514
98.484
89.68
81.132
72.868
64.911
57.286
50.011
43.103
36.577
30.443
24.71
19.384
14.465
9.955
5.85
2.145
-1.17
-4.104
-6.67
-8.882
-10.758
-12.315
-13.571
-14.547
-15.264
-15.742
-16.004
-16.072
-15.967
-15.712
-15.327
-14.834
-14.253
-13.604
-12.906
-12.178
-11.435
-10.694
-9.971
-9.279
-8.63
-8.036
-7.507
-7.053
-6.68
-6.394
-6.2
-6.103
-6.103
-6.202
-6.401
-6.698
-7.092
-7.581
-8.161
-8.83
-9.584
-10.418
-11.329
-12.311
-13.36
-14.473
-15.645
-16.871
-18.148
-19.474
-20.844
-22.256
-23.707
-25.195
-26.716
-28.269
-29.851
-31.46
-33.092
-34.746
-36.418
-38.107
-39.81
-41.525
-43.249
-44.978
-46.71
-48.441
-50.167
-51.884
-53.585
-55.264
-56.917
-58.536
-60.115
-61.647
-63.122
-64.533
-65.87
-67.126
-68.291
-69.353
-70.304
-71.135
-71.835
-72.398
-72.815
-73.077
-73.18
-73.121
-72.898
-72.51
-71.958
-71.242
-70.365
-69.331
-68.145
-66.808
-65.324
-63.698
-61.935
-60.047
-58.046
-55.945
-53.758
-51.502
-49.19
-46.845
-44.481
-42.104
-39.725
-37.354
-35.01
-32.728
-30.535
-28.452
-26.498
-24.697
-23.058
-21.589
-20.277
-19.08
-17.963
-16.896
-15.857
-14.849
-13.864
-12.881
-11.869
-10.79
-9.61
-8.323
-6.919
-5.366
-3.677
-1.923
-0.223
1.224
2.255
2.769
2.657
1.812
0.128
-2.52
-6.228
-11.037
-17.07
-24.537
-33.519
-44.005
-55.772
-68.176
-80.506
-92.103
-102.046
-109.284
-113.272
-113.794
-111.052
-106.575
-102.184
-99.268
-100.17
-106.084
-115.034
-125.046
-133.855
-140.636
-150.56
-166.933
-185.431
-194.547
-173.74
-105.142
14.667
178.459
368.888
565.093
753.835
919.462
1044.527
1115.313
1114.747
1038.885
896.749
698.632
465.663
217.92
-26.551
-241.307
-406.984
-514.776
-565.267
-575.538
-565.994
-547.2
-523.185
-490.846
-444.74
-387.294
-325.277
-265.509
-214.859
-176.963
-152.24
-139.86
-137.831
-143.377
-153.771
-166.977
-181.032
-193.533
-202.469
-206.779
-206.31
-201.857
-194.598
-185.37
-174.964
-164.565
-155.405
-148.222
-143.207
-140.085
-138.282
-137.298
-136.79
-136.312
-135.349
-133.606
-130.961
-127.419
-123.146
-118.286
-112.901
-107.081
-100.926
-94.495
-87.861
-81.094
-74.237
-67.366
-60.547
-53.811
-47.192
-40.707
-34.352
-28.129
-22.026
-16.006
-10.051
-4.153
1.696
7.497
13.26
19.009
24.762
30.538
36.351
42.211
48.128
54.111
60.16
66.27
72.432
78.633
84.863
91.115
97.382
103.653
109.916
116.158
122.363
128.516
134.6
140.591
146.467
152.205
157.78
163.169
168.35
173.297
177.987
182.396
186.501
190.279
193.707
196.763
199.427
201.68
203.503
204.881
205.801
206.25
206.219
205.7
204.69
203.185
201.188
198.7
195.727
192.278
188.363
183.996
179.192
173.971
168.352
162.358
156.014
149.347
142.385
135.157
127.694
120.028
112.192
104.218
96.14
87.993
79.808
71.621
63.465
55.37
47.369
39.492
31.767
24.221
16.88
9.769
2.907
-3.684
-9.987
-15.987
-21.672
-27.029
-32.052
-36.733
-41.068
-45.057
-48.698
-51.993
-54.948
-57.567
-59.859
-61.832
-63.498
-64.87
-65.96
-66.784
-67.36
-67.702
-67.831
-67.764
-67.52
-67.12
-66.582
-65.928
-65.176
-64.348
-63.462
-62.537
-61.593
-60.648
-59.717
-58.819
-57.967
-57.178
-56.464
-55.839
-55.315
-54.902
-54.612
-54.453
-54.434
-54.561
-54.843
-55.283
-55.885
-56.654
-57.591
-58.697
-59.973
-61.417
-63.03
-64.808
-66.748
-68.844
-71.093
-73.489
-76.023
-78.689
-81.478
-84.38
-87.387
-90.489
-93.674
-96.933
-100.252
-103.621
-107.026
-110.455
-113.892
-117.323
-120.733
-124.107
-127.429
-130.686
-133.859
-136.935
-139.896
-142.728
-145.416
-147.944
-150.297
-152.457
-154.412
-156.148
-157.652
-158.912
-159.916
-160.654
-161.116
-161.296
-161.187
-160.786
-160.085
-159.084
-157.78
-156.177
-154.277
-152.085
-149.607
-146.852
-143.835
-140.571
-137.076
-133.369
-129.469
-125.397
-121.175
-116.828
-112.375
-107.838
-103.239
-98.601
-93.952
-89.321
-84.732
-80.213
-75.79
-71.489
-67.34
-63.362
-59.566
-55.963
-52.567
-49.395
-46.478
-43.835
-41.475
-39.406
-37.64
-36.175
-35.006
-34.103
-33.41
-32.878
-32.462
-32.136
-31.892
-31.7
-31.519
-31.302
-30.993
-30.565
-30.013
-29.311
-28.411
-27.315
-26.074
-24.807
-23.702
-22.885
-22.416
-22.361
-22.789
-23.804
-25.534
-28.067
-31.42
-35.661
-40.936
-47.326
-54.87
-63.361
-72.162
-80.534
-87.771
-93.007
-95.362
-94.383
-89.775
-81.715
-71.671
-61.429
-52.704
-48.14
-49.094
-54.035
-61.425
-68.901
-74.94
-83.704
-97.935
-113.902
-122.82
-106.522
-45.668
66.048
225.764
419.946
624.011
819.708
990.037
1115.949
1188.594
1197.115
1134.089
1005.29
816.247
581.387
323.769
65.28
-166.477
-349.595
-475.346
-544.055
-567.31
-557.757
-522.517
-467.208
-397.955
-325.556
-262.984
-218.229
-190.407
-170.399
-149.522
-125.047
-100.008
-81.458
-73.693
-75.855
-84.781
-96
-105.712
-111.999
-114.121
-112.061
-106.287
-97.541
-86.526
-74.066
-61.46
-50.073
-40.751
-33.858
-29.288
-26.576
-25.256
-24.881
-24.886
-24.674
-23.881
-22.349
-20.061
-17.138
-13.691
-9.786
-5.513
-0.973
3.78
8.71
13.78
18.972
24.229
29.471
34.653
39.745
44.735
49.632
54.449
59.201
63.928
68.676
73.473
78.345
83.306
88.371
93.562
98.909
104.431
110.152
116.087
122.247
128.64
135.266
142.118
149.179
156.431
163.851
171.417
179.106
186.895
194.755
202.659
210.573
218.465
226.3
234.038
241.64
249.063
256.265
263.205
269.842
276.135
282.045
287.533
292.561
297.095
301.102
304.55
307.412
309.661
311.275
312.237
312.532
312.148
311.077
309.318
306.871
303.741
299.937
295.474
290.366
284.635
278.306
271.405
263.964
256.017
247.599
238.75
229.512
219.928
210.044
199.906
189.561
179.056
168.441
157.763
147.068
136.405
125.817
115.349
105.042
94.938
85.073
75.483
66.2
57.253
48.669
40.471
32.678
25.308
18.373
11.883
5.846
0.265
-4.859
-9.528
-13.747
-17.525
-20.87
-23.795
-26.315
-28.447
-30.208
-31.619
-32.7
-33.475
-33.967
-34.201
-34.201
-33.991
-33.597
-33.044
-32.356
-31.557
-30.669
-29.715
-28.716
-27.691
-26.659
-25.638
-24.642
-23.686
-22.782
-21.942
-21.175
-20.491
-19.894
-19.393
-18.993
-18.697
-18.509
-18.433
-18.468
-18.617
-18.881
-19.258
-19.749
-20.349
-21.058
-21.873
-22.791
-23.81
-24.928
-26.142
-27.45
-28.849
-30.339
-31.916
-33.581
-35.33
-37.163
-39.079
-41.078
-43.159
-45.324
-47.572
-49.903
-52.317
-54.815
-57.395
-60.054
-62.787
-65.592
-68.464
-71.397
-74.382
-77.409
-80.471
-83.56
-86.669
-89.79
-92.91
-96.02
-99.107
-102.163
-105.175
-108.125
-110.991
-113.751
-116.386
-118.881
-121.22
-123.382
-125.349
-127.103
-128.632
-129.927
-130.978
-131.767
-132.265
-132.448
-132.306
-131.85
-131.106
-130.089
-128.81
-127.286
-125.546
-123.629
-121.562
-119.345
-116.945
-114.334
-111.507
-108.486
-105.318
-102.044
-98.674
-95.191
-91.568
-87.794
-83.869
-79.776
-75.462
-70.866
-65.973
-60.835
-55.581
-50.335
-45.16
-40.085
-35.095
-30.173
-25.353
-20.69
-16.231
-12.007
-8.034
-4.355
-1.076
1.666
3.782
5.289
6.329
7.055
7.549
7.801
7.684
7.112
6.123
4.687
2.689
-0.178
-4.438
-10.328
-17.678
-26.273
-35.943
-46.463
-57.658
-68.763
-78.178
-84.781
-88.119
-88.061
-84.936
-79.122
-70.891
-61.645
-54.201
-50.853
-53.029
-61.609
-76.501
-97.563
-124.892
-155.329
-182.417
-200.908
-205.74
-196.445
-178.321
-150.973
-111.68
-54.303
34.012
155.881
307.595
481.496
659.227
826.38
967.991
1065.711
1105.534
1072.831
961.414
776.464
533.582
260.801
-10.604
-249.288
-431.492
-547.298
-600.403
-604.564
-574.56
-525.16
-464.931
-401.496
-347.947
-309.866
-289.791
-283.822
-276.892
-261.53
-236.953
-206.12
-178.838
-159.898
-148.482
-143.32
-141.528
-141.635
-143.654
-147.126
-151.326
-155.203
-158.105
-159.698
-159.572
-157.584
-153.925
-148.898
-143.197
-137.759
-132.922
-128.677
-125.045
-121.87
-119.018
-116.434
-113.829
-110.758
-107.033
-102.643
-97.638
-92.188
-86.383
-80.229
-73.819
-67.28
-60.72
-54.247
-47.904
-41.669
-35.535
-29.506
-23.58
-17.767
-12.051
-6.385
-0.739
4.906
10.563
16.233
21.925
27.658
33.453
39.323
45.278
51.32
57.451
63.677
69.999
76.416
82.921
89.499
96.138
102.826
109.555
116.311
123.08
129.847
136.593
143.3
149.949
156.518
162.982
169.316
175.495
181.492
187.282
192.842
198.145
203.168
207.889
212.285
216.335
220.02
223.32
226.218
228.699
230.749
232.356
233.51
234.203
234.429
234.186
233.473
232.293
230.648
228.546
225.995
223.008
219.597
215.78
211.573
206.996
202.071
196.823
191.274
185.453
179.384
173.097
166.619
159.979
153.205
146.327
139.372
132.368
125.344
118.326
111.341
104.413
97.567
90.826
84.211
77.744
71.442
65.325
59.407
53.704
48.228
42.99
38
33.265
28.792
24.585
20.648
16.981
13.587
10.463
7.608
5.02
2.693
0.623
-1.197
-2.772
-4.112
-5.225
-6.12
-6.807
-7.297
-7.6
-7.727
-7.691
-7.503
-7.176
-6.722
-6.156
-5.49
-4.739
-3.918
-3.041
-2.123
-1.179
-0.224
0.727
1.658
2.555
3.401
4.181
4.878
5.477
5.962
6.317
6.526
6.576
6.452
6.139
5.626
4.901
3.951
2.768
1.341
-0.338
-2.276
-4.48
-6.954
-9.701
-12.722
-16.016
-19.583
-23.416
-27.51
-31.856
-36.445
-41.265
-46.305
-51.548
-56.978
-62.575
-68.318
-74.186
-80.153
-86.194
-92.279
-98.381
-104.469
-110.515
-116.489
-122.359
-128.094
-133.666
-139.044
-144.202
-149.111
-153.744
-158.074
-162.08
-165.74
-169.035
-171.949
-174.467
-176.579
-178.28
-179.567
-180.44
-180.9
-180.953
-180.606
-179.87
-178.759
-177.283
-175.457
-173.299
-170.831
-168.081
-165.079
-161.855
-158.441
-154.868
-151.17
-147.384
-143.541
-139.66
-135.764
-131.88
-128.042
-124.297
-120.692
-117.25
-114.001
-110.97
-108.169
-105.61
-103.285
-101.151
-99.177
-97.337
-95.613
-94.014
-92.537
-91.153
-89.826
-88.502
-87.132
-85.705
-84.198
-82.57
-80.832
-79.03
-77.265
-75.709
-74.492
-73.693
-73.407
-73.73
-74.775
-76.674
-79.503
-83.347
-88.363
-94.668
-102.276
-111.008
-120.392
-129.813
-138.675
-146.304
-151.918
-154.821
-154.683
-151.962
-147.762
-143.388
-140.29
-139.823
-143.42
-152.864
-167.643
-183.557
-196.083
-200.368
-195.382
-187.448
-179.414
-168.523
-145.881
-91.772
8.486
157.359
348.465
559.329
764.45
943.569
1075.928
1151.279
1161.511
1097.943
962.465
757.135
496.29
210.298
-70.616
-309.194
-479.252
-580.82
-622.241
-624.731
-610.665
-582.407
-542.022
-492.336
-433.278
-377.11
-331.579
-293.94
-263.856
-237.03
-212.116
-194.873
-187.344
-189.678
-200.229
-214.363
-228.951
-241.689
-250.535
-254.961
-254.997
-251.093
-244.264
-235.358
-225.181
-214.957
-205.949
-198.911
-194.047
-191.121
-189.577
-188.877
-188.64
-188.393
-187.604
-185.981
-183.404
-179.881
-175.575
-170.635
-165.129
-159.148
-152.793
-146.117
-139.193
-132.092
-124.866
-117.605
-110.383
-103.239
-96.212
-89.322
-82.568
-75.951
-69.457
-63.043
-56.687
-50.378
-44.106
-37.869
-31.653
-25.432
-19.183
-12.885
-6.518
-0.068
6.478
13.132
19.898
26.773
33.748
40.812
47.953
55.167
62.444
69.774
77.145
84.541
91.947
99.345
106.716
114.035
121.275
128.411
135.413
142.255
148.909
155.343
161.53
167.44
173.045
178.316
183.225
187.745
191.849
195.513
198.714
201.431
203.645
205.341
206.502
207.12
207.187
206.698
205.652
204.05
201.896
199.2
195.973
192.228
187.982
183.257
178.074
172.46
166.444
160.057
153.332
146.305
139.012
131.49
123.78
115.922
107.954
99.918
91.855
83.805
75.807
67.903
60.129
52.523
45.12
37.953
31.054
24.452
18.173
12.24
6.675
1.494
-3.286
-7.654
-11.6
-15.119
-18.207
-20.865
-23.095
-24.903
-26.297
-27.29
-27.894
-28.126
-28.004
-27.547
-26.778
-25.719
-24.394
-22.829
-21.051
-19.086
-16.962
-14.709
-12.353
-9.924
-7.451
-4.959
-2.478
-0.032
2.354
4.656
6.852
8.921
10.843
12.601
14.179
15.561
16.736
17.693
18.422
18.919
19.178
19.197
18.975
18.514
17.816
16.887
15.731
14.357
12.772
10.986
9.009
6.853
4.533
2.06
-0.551
-3.283
-6.12
-9.045
-12.042
-15.093
-18.182
-21.292
-24.406
-27.506
-30.576
-33.6
-36.56
-39.44
-42.224
-44.897
-47.444
-49.851
-52.108
-54.201
-56.12
-57.856
-59.402
-60.75
-61.897
-62.835
-63.56
-64.071
-64.365
-64.445
-64.308
-63.959
-63.399
-62.638
-61.685
-60.553
-59.252
-57.794
-56.194
-54.468
-52.63
-50.696
-48.674
-46.575
-44.413
-42.206
-39.973
-37.732
-35.5
-33.291
-31.124
-29.018
-26.99
-25.046
-23.186
-21.412
-19.732
-18.166
-16.746
-15.494
-14.422
-13.542
-12.864
-12.39
-12.115
-12.011
-12.028
-12.119
-12.248
-12.393
-12.547
-12.68
-12.753
-12.716
-12.505
-12.084
-11.422
-10.476
-9.238
-7.74
-6.041
-4.257
-2.518
-0.92
0.409
1.323
1.688
1.351
0.216
-1.823
-5
-9.469
-15.238
-22.114
-29.552
-36.913
-43.71
-49.352
-53.052
-54.216
-52.592
-48.749
-44.154
-40.286
-38.58
-40.409
-46.991
-59.698
-77.523
-95.997
-110.655
-116.977
-114.699
-108.887
-98.767
-78.51
-36.787
41.74
160.145
310.39
478.467
647.111
806.666
950.944
1069.557
1148.008
1165.915
1106.746
967.407
755.608
494.899
218.121
-44.38
-260.647
-412.393
-501.92
-537.417
-537.757
-520.21
-485.01
-434.501
-372.418
-301.099
-234.581
-180.659
-136.551
-101.966
-71.986
-45.238
-28.013
-22.321
-28.257
-44.099
-64.274
-84.667
-102.822
-116.525
-125.112
-128.757
-127.788
-123.1
-115.855
-107.2
-98.432
-90.888
-85.264
-81.664
-79.889
-79.406
-79.711
-80.438
-81.106
-81.218
-80.519
-78.922
-76.469
-73.35
-69.682
-65.519
-60.949
-56.048
-50.888
-45.54
-40.057
-34.483
-28.857
-23.207
-17.555
-11.918
-6.298
-0.692
4.913
10.546
16.222
21.943
27.712
33.523
39.378
45.293
51.281
57.356
63.527
69.8
76.179
82.67
89.271
95.974
102.763
109.621
116.533
123.485
130.467
137.464
144.459
151.434
158.371
165.25
172.051
178.75
185.32
191.736
197.971
204.002
209.804
215.352
220.623
225.592
230.238
234.537
238.469
242.014
245.152
247.865
250.136
251.952
253.301
254.173
254.559
254.456
253.86
252.772
251.195
249.134
246.596
243.592
240.136
236.241
231.926
227.21
222.114
216.661
210.877
204.788
198.422
191.807
184.973
177.949
170.766
163.455
156.048
148.574
141.065
133.551
126.062
118.627
111.275
104.031
96.922
89.971
83.2
76.631
70.282
64.17
58.31
52.715
47.395
42.36
37.615
33.164
29.012
25.157
21.599
18.336
15.362
12.672
10.26
8.117
6.234
4.6
3.205
2.034
1.077
0.317
-0.258
-0.665
-0.918
-1.033
-1.027
-0.914
-0.712
-0.435
-0.1
0.278
0.683
1.099
1.513
1.909
2.274
2.594
2.857
3.051
3.166
3.191
3.116
2.933
2.634
2.211
1.658
0.968
0.136
-0.842
-1.97
-3.251
-4.688
-6.281
-8.031
-9.937
-12
-14.215
-16.581
-19.093
-21.748
-24.54
-27.462
-30.507
-33.667
-36.932
-40.291
-43.735
-47.249
-50.82
-54.435
-58.078
-61.734
-65.39
-69.028
-72.633
-76.188
-79.678
-83.089
-86.403
-89.606
-92.679
-95.61
-98.385
-100.99
-103.414
-105.646
-107.675
-109.495
-111.104
-112.498
-113.675
-114.632
-115.368
-115.887
-116.196
-116.3
-116.205
-115.917
-115.443
-114.797
-113.996
-113.052
-111.978
-110.782
-109.475
-108.07
-106.586
-105.037
-103.43
-101.769
-100.058
-98.309
-96.544
-94.782
-93.03
-91.3
-89.597
-87.929
-86.309
-84.737
-83.193
-81.661
-80.118
-78.536
-76.921
-75.267
-73.573
-71.867
-70.141
-68.375
-66.565
-64.664
-62.629
-60.516
-58.354
-56.137
-54.008
-52.129
-50.745
-50.365
-51.384
-53.883
-57.883
-63.32
-69.888
-77.303
-85.011
-91.761
-96.356
-98.141
-96.776
-92.39
-85.476
-76.349
-65.755
-55.724
-48.575
-46.037
-49.553
-59.749
-76.654
-101.008
-131.221
-161.884
-187.84
-204.094
-210.435
-213.083
-213.044
-205.513
-178.238
-112.565
-1.015
152.16
334.05
524.366
709.057
878.029
1017.811
1113.44
1146.163
1100.731
976.211
783.295
542.305
278.766
16.337
-221.285
-413.843
-549.396
-625.838
-652.436
-642.013
-605.512
-550.043
-480.74
-407.056
-339.423
-286.058
-248.584
-219.827
-193.163
-165.945
-140.153
-122.344
-115.884
-119.684
-131.241
-146.061
-160.47
-172.758
-181.295
-185.464
-185.707
-182.516
-176.448
-168.333
-159.079
-149.727
-141.59
-135.385
-131.123
-128.566
-127.229
-126.663
-126.573
-126.551
-126.08
-124.881
-122.859
-120.044
-116.637
-112.764
-108.465
-103.82
-98.9
-93.772
-88.512
-83.175
-77.799
-72.418
-67.054
-61.723
-56.443
-51.214
-46.029
-40.872
-35.701
-30.493
-25.24
-19.932
-14.573
-9.154
-3.658
1.933
7.63
13.441
19.372
25.424
31.605
37.911
44.332
50.854
57.457
64.123
70.84
77.594
84.368
91.145
97.906
104.629
111.296
117.885
124.369
130.723
136.918
142.928
148.729
154.295
159.6
164.621
169.335
173.719
177.753
181.418
184.695
187.566
190.016
192.033
193.604
194.72
195.374
195.561
195.277
194.523
193.3
191.612
189.465
186.866
183.828
180.361
176.481
172.204
167.547
162.532
157.18
151.516
145.565
139.354
132.912
126.266
119.446
112.482
105.403
98.241
91.024
83.782
76.545
69.341
62.199
55.145
48.205
41.405
34.767
28.315
22.069
16.049
10.272
4.755
-0.488
-5.444
-10.101
-14.449
-18.482
-22.193
-25.579
-28.637
-31.367
-33.771
-35.853
-37.618
-39.074
-40.229
-41.094
-41.68
-42.001
-42.07
-41.904
-41.518
-40.931
-40.161
-39.227
-38.148
-36.944
-35.636
-34.244
-32.789
-31.292
-29.773
-28.253
-26.753
-25.293
-23.892
-22.57
-21.345
-20.235
-19.255
-18.422
-17.75
-17.251
-16.937
-16.818
-16.903
-17.201
-17.715
-18.451
-19.411
-20.596
-22.005
-23.637
-25.485
-27.545
-29.808
-32.266
-34.909
-37.726
-40.703
-43.827
-47.082
-50.452
-53.92
-57.467
-61.073
-64.718
-68.381
-72.04
-75.676
-79.268
-82.792
-86.229
-89.559
-92.762
-95.82
-98.715
-101.429
-103.945
-106.25
-108.331
-110.177
-111.778
-113.125
-114.215
-115.047
-115.623
-115.947
-116.024
-115.86
-115.466
-114.854
-114.034
-113.017
-111.811
-110.428
-108.885
-107.2
-105.395
-103.49
-101.505
-99.462
-97.382
-95.29
-93.203
-91.127
-89.072
-87.051
-85.087
-83.22
-81.481
-79.89
-78.472
-77.243
-76.207
-75.366
-74.699
-74.156
-73.696
-73.283
-72.89
-72.517
-72.145
-71.738
-71.26
-70.645
-69.846
-68.842
-67.594
-66.075
-64.335
-62.442
-60.525
-58.777
-57.312
-56.244
-55.719
-55.828
-56.7
-58.473
-61.197
-65.031
-70.246
-76.922
-85.065
-94.503
-104.548
-114.488
-123.732
-131.286
-136.128
-137.798
-135.996
-131.062
-124.756
-118.959
-115.262
-116.098
-122.555
-132.921
-145.708
-158.476
-169.481
-182.102
-197.532
-210.978
-212.894
-186.013
-114.866
3.576
164.574
354.873
555.979
755.33
936.193
1077.931
1163.475
1174.042
1105.439
968.421
777.533
554.772
316.532
76.262
-146.951
-336.216
-475.772
-557.887
-589.202
-582.81
-552.491
-510.492
-464.725
-419.713
-381.435
-351.2
-324.281
-297.292
-265.736
-229.994
-197.351
-171.874
-155.525
-147.748
-144.421
-143.766
-145.339
-148.023
-151.071
-153.172
-153.189
-151.194
-147.569
-142.524
-136.435
-129.81
-123.361
-118.111
-114.61
-112.804
-112.438
-113.124
-114.526
-116.403
-118.37
-119.917
-120.74
-120.717
-119.829
-118.148
-115.672
-112.389
-108.402
-103.895
-99.04
-93.974
-88.794
-83.57
-78.381
-73.295
-68.342
-63.513
-58.779
-54.122
-49.533
-45.019
-40.599
-36.275
-32.016
-27.775
-23.505
-19.16
-14.708
-10.109
-5.321
-0.312
4.926
10.383
16.04
21.881
27.898
34.081
40.423
46.91
53.522
60.237
67.033
73.886
80.769
87.651
94.495
101.268
107.938
114.477
120.859
127.052
133.027
138.75
144.195
149.332
154.134
158.571
162.614
166.24
169.424
172.149
174.398
176.155
177.41
178.155
178.384
178.098
177.297
175.987
174.177
171.876
169.1
165.865
162.191
158.101
153.618
148.771
143.59
138.104
132.348
126.357
120.164
113.808
107.323
100.748
94.119
87.471
80.841
74.264
67.776
61.41
55.196
49.164
43.343
37.758
32.431
27.383
22.631
18.19
14.071
10.285
6.838
3.733
0.972
-1.446
-3.525
-5.271
-6.694
-7.802
-8.61
-9.132
-9.383
-9.382
-9.148
-8.699
-8.059
-7.248
-6.29
-5.206
-4.021
-2.756
-1.437
-0.085
1.276
2.626
3.942
5.205
6.395
7.494
8.485
9.354
10.087
10.672
11.098
11.355
11.436
11.336
11.051
10.577
9.913
9.059
8.017
6.791
5.385
3.804
2.055
0.146
-1.912
-4.109
-6.435
-8.877
-11.423
-14.06
-16.774
-19.55
-22.373
-25.227
-28.098
-30.969
-33.824
-36.645
-39.418
-42.125
-44.752
-47.284
-49.706
-52.003
-54.162
-56.172
-58.02
-59.698
-61.194
-62.499
-63.608
-64.515
-65.217
-65.711
-65.997
-66.073
-65.948
-65.625
-65.113
-64.42
-63.555
-62.53
-61.359
-60.054
-58.626
-57.088
-55.453
-53.737
-51.958
-50.138
-48.296
-46.45
-44.62
-42.825
-41.088
-39.425
-37.843
-36.352
-34.963
-33.692
-32.573
-31.632
-30.881
-30.334
-30.001
-29.883
-29.98
-30.276
-30.724
-31.286
-31.928
-32.625
-33.374
-34.166
-34.963
-35.72
-36.381
-36.889
-37.227
-37.373
-37.29
-36.983
-36.501
-35.94
-35.463
-35.211
-35.274
-35.752
-36.754
-38.401
-40.842
-44.187
-48.539
-54.064
-60.877
-68.995
-78.274
-88.296
-98.477
-108.207
-116.778
-123.363
-127.299
-128.209
-126.349
-122.674
-118.346
-114.763
-113.513
-116.151
-124.33
-138.058
-154.307
-169.025
-177.639
-177.756
-171.237
-159.633
-141.949
-112.653
-61.657
22.694
149.014
318.601
526.551
756.969
983.858
1177.938
1307.879
1349.239
1292.155
1140.475
908.522
621.488
311.486
9.746
-249.457
-438.866
-551.292
-591.747
-580.092
-546.435
-509.722
-478.668
-455.113
-428.906
-391.757
-343.788
-285.691
-224.3
-169.768
-126.219
-96.391
-80.655
-75.101
-76.919
-84.403
-95.615
-108.968
-122.809
-134.987
-143.632
-148.174
-148.818
-145.977
-140.36
-132.864
-124.347
-115.907
-108.71
-103.209
-99.352
-96.875
-95.34
-94.369
-93.679
-92.88
-91.508
-89.328
-86.304
-82.523
-78.171
-73.368
-68.165
-62.636
-56.889
-51.022
-45.124
-39.271
-33.478
-27.753
-22.112
-16.562
-11.108
-5.748
-0.458
4.805
10.065
15.334
20.621
25.924
31.253
36.625
42.061
47.575
53.178
58.876
64.674
70.579
76.594
82.714
88.927
95.216
101.568
107.971
114.416
120.888
127.374
133.855
140.315
146.735
153.096
159.373
165.542
171.577
177.451
183.14
188.62
193.866
198.856
203.566
207.975
212.064
215.814
219.208
222.229
224.864
227.101
228.931
230.346
231.34
231.912
232.062
231.792
231.109
230.018
228.532
226.663
224.427
221.841
218.925
215.701
212.194
208.428
204.431
200.233
195.864
191.354
186.736
182.041
177.302
172.551
167.82
163.139
158.54
154.05
149.698
145.511
141.512
137.725
134.171
130.869
127.835
125.085
122.63
120.48
118.643
117.123
115.923
115.043
114.479
114.228
114.281
114.631
115.267
116.174
117.34
118.748
120.38
122.217
124.239
126.425
128.752
131.197
133.738
136.35
139.009
141.692
144.375
147.036
149.65
152.196
154.653
156.999
159.215
161.281
163.179
164.895
166.412
167.718
168.801
169.65
170.257
170.616
170.72
170.566
170.151
169.473
168.534
167.334
165.878
164.171
162.219
160.031
157.615
154.984
152.149
149.123
145.92
142.554
139.042
135.4
131.645
127.796
123.87
119.888
115.87
111.836
107.806
103.799
99.835
95.932
92.109
88.385
84.775
81.295
77.959
74.784
71.782
68.966
66.346
63.93
61.725
59.737
57.969
56.423
55.094
53.975
53.062
52.346
51.82
51.473
51.291
51.26
51.365
51.595
51.934
52.365
52.865
53.412
53.983
54.562
55.13
55.672
56.165
56.593
56.947
57.214
57.387
57.453
57.383
57.155
56.757
56.174
55.403
54.45
53.32
52.027
50.614
49.105
47.535
45.933
44.303
42.679
41.09
39.549
38.101
36.762
35.546
34.528
33.752
33.182
32.775
32.392
31.893
31.315
30.542
29.274
27.271
24.178
19.863
14.625
8.48
1.092
-7.445
-16.757
-26.179
-34.369
-40.629
-45.222
-47.88
-47.965
-45.371
-40.342
-34.217
-29.696
-28.501
-31.179
-38.556
-51.433
-70.488
-94.6
-119.073
-138.069
-146.091
-141.388
-127.964
-107.479
-78.568
-36.609
31.217
134.013
274.112
450.126
647.092
843.466
1014.92
1133.399
1180.43
1147.251
1037.887
867.224
649.581
403.955
148.125
-99.755
-313.837
-477.207
-583.512
-634.952
-646.564
-632.234
-598.805
-553.019
-501.726
-451.68
-410.484
-380.217
-354.744
-328.358
-299.264
-269.952
-247.268
-235.521
-234.325
-240.865
-251.083
-262.098
-272.011
-279.191
-282.932
-282.991
-279.643
-273.715
-265.89
-256.823
-247.614
-239.481
-233.164
-228.909
-226.502
-225.382
-225.049
-225.149
-225.221
-224.744
-223.417
-221.102
-217.807
-213.711
-208.956
-203.615
-197.786
-191.569
-185.032
-178.262
-171.34
-164.328
-157.319
-150.387
-143.574
-136.923
-130.453
-124.161
-118.047
-112.089
-106.249
-100.508
-94.856
-89.287
-83.802
-78.39
-73.033
-67.715
-62.418
-57.131
-51.846
-46.556
-41.254
-35.945
-30.637
-25.343
-20.08
-14.86
-9.693
-4.588
0.443
5.391
10.24
14.979
19.594
24.069
28.387
32.529
36.475
40.208
43.71
46.964
49.955
52.667
55.085
57.198
58.995
60.464
61.599
62.391
62.837
62.933
62.679
62.075
61.124
59.832
58.205
56.252
53.985
51.417
48.561
45.434
42.053
38.439
34.612
30.592
26.403
22.068
17.612
13.061
8.441
3.777
-0.904
-5.576
-10.213
-14.79
-19.283
-23.67
-27.928
-32.037
-35.979
-39.734
-43.288
-46.627
-49.736
-52.607
-55.23
-57.597
-59.705
-61.548
-63.125
-64.438
-65.487
-66.276
-66.81
-67.095
-67.139
-66.951
-66.541
-65.919
-65.098
-64.091
-62.913
-61.577
-60.099
-58.496
-56.784
-54.978
-53.097
-51.155
-49.171
-47.159
-45.137
-43.121
-41.125
-39.167
-37.261
-35.421
-33.662
-31.997
-30.438
-28.998
-27.689
-26.52
-25.501
-24.642
-23.951
-23.436
-23.105
-22.965
-23.021
-23.279
-23.741
-24.412
-25.293
-26.384
-27.685
-29.195
-30.912
-32.834
-34.957
-37.277
-39.788
-42.483
-45.356
-48.397
-51.598
-54.946
-58.43
-62.038
-65.757
-69.574
-73.475
-77.445
-81.47
-85.534
-89.623
-93.721
-97.814
-101.883
-105.914
-109.892
-113.803
-117.633
-121.369
-124.999
-128.515
-131.909
-135.177
-138.314
-141.317
-144.181
-146.906
-149.492
-151.939
-154.244
-156.407
-158.427
-160.309
-162.063
-163.697
-165.221
-166.643
-167.973
-169.223
-170.407
-171.53
-172.592
-173.595
-174.546
-175.459
-176.367
-177.294
-178.253
-179.256
-180.311
-181.413
-182.558
-183.72
-184.848
-185.898
-186.834
-187.633
-188.301
-188.825
-189.173
-189.314
-189.186
-188.749
-187.999
-186.907
-185.457
-183.695
-181.685
-179.554
-177.495
-175.625
-174.045
-172.883
-172.235
-172.235
-173.023
-174.652
-177.237
-180.984
-185.984
-192.213
-199.423
-206.964
-214.175
-220.524
-225.261
-227.565
-226.889
-223.029
-216.651
-209.29
-202.365
-197.152
-195.105
-197.597
-205.612
-217.967
-230.702
-239.367
-240.426
-234.16
-222.987
-204.88
-173.749
-119.486
-32.687
86.436
231.142
390.658
552.84
708.434
844.281
943.231
988.767
966.828
877.321
731.355
542.259
328.639
105.78
-111.549
-300.659
-444.861
-536.609
-577.759
-585.468
-577.897
-563.636
-545.336
-519.038
-479.825
-430.256
-376.621
-325.317
-282.662
-251.641
-232.018
-222.821
-222.351
-228.016
-237.211
-247.562
-256.398
-261.571
-262.141
-257.74
-248.649
-236.059
-221.353
-205.995
-191.784
-180.057
-171.476
-166.351
-164.505
-165.346
-168.178
-172.182
-176.42
-180.288
-183.501
-185.888
-187.451
-188.221
-188.195
-187.427
-186.002
-183.892
-180.985
-177.216
-172.558
-167.099
-161.047
-154.583
-147.846
-140.951
-133.968
-126.955
-119.958
-112.979
-105.978
-98.926
-91.806
-84.644
-77.505
-70.423
-63.398
-56.398
-49.358
-42.228
-34.974
-27.564
-19.963
-12.157
-4.14
4.068
12.421
20.882
29.423
38.026
46.683
55.377
64.082
72.771
81.414
89.977
98.432
106.74
114.861
122.757
130.395
137.748
144.794
151.511
157.873
163.859
169.447
174.618
179.354
183.638
187.451
190.781
193.618
195.955
197.789
199.119
199.948
200.281
200.125
199.493
198.397
196.852
194.876
192.488
189.71
186.565
183.079
179.277
175.188
170.842
166.27
161.503
156.575
151.517
146.36
141.138
135.881
130.62
125.383
120.199
115.096
110.098
105.232
100.52
95.983
91.64
87.508
83.603
79.935
76.516
73.354
70.455
67.822
65.458
63.365
61.539
59.979
58.68
57.635
56.836
56.275
55.94
55.819
55.9
56.168
56.609
57.209
57.951
58.821
59.801
60.877
62.032
63.25
64.515
65.81
67.122
68.433
69.731
71.002
72.232
73.409
74.522
75.56
76.514
77.375
78.134
78.785
79.321
79.736
80.026
80.188
80.219
80.117
79.883
79.516
79.019
78.394
77.645
76.775
75.788
74.69
73.488
72.187
70.796
69.323
67.775
66.165
64.503
62.8
61.067
59.317
57.561
55.811
54.081
52.381
50.722
49.115
47.571
46.101
44.717
43.427
42.24
41.163
40.202
39.365
38.655
38.073
37.615
37.279
37.062
36.96
36.971
37.088
37.299
37.597
37.976
38.43
38.951
39.526
40.137
40.768
41.41
42.052
42.683
43.29
43.856
44.37
44.83
45.233
45.578
45.852
46.032
46.099
46.044
45.858
45.538
45.085
44.496
43.788
42.993
42.144
41.271
40.397
39.538
38.715
37.943
37.227
36.579
36.012
35.563
35.304
35.264
35.408
35.65
35.9
36.135
36.295
36.162
35.349
33.452
30.269
25.957
20.732
14.478
7.162
-0.914
-8.922
-15.557
-19.89
-21.881
-21.792
-19.372
-14.361
-6.992
1.345
8.081
11.067
9.161
1.931
-11.348
-31.977
-58.561
-85.887
-108.351
-120.013
-121.09
-119.307
-115.246
-104.8
-76.417
-8.757
105.427
263.14
454.457
656.248
851.633
1024.138
1152.515
1219.985
1208.784
1111.382
934.972
697.495
428.102
157.045
-87.382
-283.115
-418.788
-494.508
-518.951
-503.216
-461.477
-403.121
-337.947
-280.777
-237.392
-210.373
-196.143
-181.077
-160.017
-134.336
-107.765
-88.918
-80.795
-80.848
-86.356
-93.604
-99.957
-104.113
-105.278
-103.365
-98.724
-92.143
-84.289
-75.535
-66.642
-58.727
-52.52
-48.379
-46.259
-45.634
-46.02
-47.07
-48.346
-49.343
-49.729
-49.327
-48.089
-46.135
-43.583
-40.501
-36.976
-33.103
-28.944
-24.548
-19.973
-15.256
-10.468
-5.696
-0.998
3.59
8.046
12.371
16.571
20.657
24.661
28.624
32.573
36.526
40.498
44.497
48.542
52.657
56.865
61.187
65.64
70.236
74.985
79.892
84.955
90.166
95.514
100.983
106.56
112.234
117.991
123.816
129.693
135.601
141.52
147.429
153.302
159.113
164.832
170.431
175.88
181.151
186.217
191.049
195.62
199.905
203.878
207.517
210.8
213.706
216.215
218.311
219.979
221.206
221.982
222.299
222.151
221.538
220.458
218.917
216.919
214.474
211.592
208.288
204.577
200.478
196.013
191.203
186.075
180.656
174.974
169.06
162.946
156.662
150.24
143.714
137.114
130.472
123.82
117.187
110.603
104.097
97.696
91.425
85.31
79.374
73.636
68.117
62.834
57.801
53.031
48.535
44.321
40.397
36.767
33.433
30.395
27.652
25.199
23.031
21.14
19.516
18.148
17.023
16.128
15.449
14.969
14.672
14.542
14.561
14.711
14.975
15.332
15.766
16.257
16.787
17.338
17.891
18.43
18.937
19.394
19.786
20.098
20.312
20.416
20.394
20.233
19.921
19.447
18.801
17.974
16.958
15.745
14.333
12.715
10.889
8.853
6.606
4.148
1.48
-1.394
-4.472
-7.749
-11.219
-14.875
-18.708
-22.71
-26.87
-31.178
-35.623
-40.192
-44.87
-49.644
-54.497
-59.413
-64.374
-69.36
-74.351
-79.328
-84.27
-89.157
-93.968
-98.683
-103.28
-107.743
-112.051
-116.188
-120.135
-123.875
-127.39
-130.669
-133.699
-136.468
-138.968
-141.191
-143.134
-144.8
-146.188
-147.303
-148.146
-148.721
-149.038
-149.109
-148.945
-148.557
-147.961
-147.171
-146.21
-145.101
-143.868
-142.53
-141.103
-139.605
-138.056
-136.48
-134.898
-133.318
-131.753
-130.213
-128.713
-127.285
-125.942
-124.687
-123.527
-122.461
-121.488
-120.618
-119.84
-119.121
-118.441
-117.772
-117.087
-116.395
-115.683
-114.947
-114.207
-113.445
-112.658
-111.857
-111.005
-110.072
-109.098
-108.097
-107.068
-106.167
-105.574
-105.587
-106.692
-109.262
-113.497
-119.475
-127.178
-136.326
-146.367
-156.405
-165.071
-171.028
-173.28
-171.311
-164.991
-154.66
-141.239
-126.095
-111.534
-100.227
-94.328
-95.522
-104.857
-122.407
-147.947
-179.595
-212.075
-239.864
-257.863
-263.541
-260.527
-251.556
-234.073
-201.735
-141.848
-42.415
97.168
271.812
470.526
674.343
867.055
1028.644
1134.711
1168.528
1119.501
989.643
793.69
550.879
284.071
16.231
-227.46
-423.478
-558.014
-627.755
-643.899
-625.269
-586.016
-537.169
-485.863
-434.644
-389.144
-352.096
-319.859
-290.727
-262.114
-234.199
-212.64
-199.767
-195.544
-198.268
-204.184
-211.12
-217.911
-223.41
-226.713
-227.317
-225.394
-221.522
-216.179
-209.781
-202.74
-195.674
-189.618
-185.122
-182.163
-180.507
-179.668
-179.281
-179.179
-179.041
-178.407
-177.007
-174.725
-171.565
-167.72
-163.311
-158.378
-153.008
-147.284
-141.295
-135.144
-128.916
-122.671
-116.464
-110.323
-104.273
-98.333
-92.503
-86.778
-81.134
-75.525
-69.917
-64.292
-58.632
-52.932
-47.177
-41.337
-35.388
-29.308
-23.079
-16.693
-10.138
-3.403
3.516
10.612
17.875
25.287
32.832
40.498
48.271
56.134
64.069
72.053
80.063
88.076
96.066
104
111.845
119.567
127.131
134.502
141.646
148.527
155.112
161.366
167.258
172.756
177.83
182.453
186.597
190.238
193.355
195.928
197.942
199.383
200.241
200.51
200.188
199.276
197.779
195.704
193.064
189.873
186.15
181.917
177.199
172.024
166.421
160.425
154.071
147.397
140.442
133.247
125.854
118.305
110.642
102.91
95.148
87.4
79.706
72.106
64.638
57.339
50.244
43.385
36.794
30.497
24.521
18.888
13.617
8.725
4.225
0.127
-3.561
-6.835
-9.694
-12.141
-14.179
-15.815
-17.061
-17.927
-18.428
-18.58
-18.401
-17.912
-17.132
-16.085
-14.793
-13.28
-11.571
-9.69
-7.662
-5.513
-3.265
-0.945
1.424
3.819
6.216
8.594
10.932
13.209
15.407
17.509
19.498
21.359
23.079
24.645
26.048
27.278
28.326
29.185
29.851
30.32
30.588
30.654
30.517
30.177
29.637
28.898
27.965
26.84
25.529
24.036
22.369
20.534
18.539
16.392
14.102
11.679
9.133
6.476
3.72
0.875
-2.046
-5.031
-8.065
-11.137
-14.232
-17.336
-20.437
-23.519
-26.565
-29.561
-32.492
-35.345
-38.103
-40.751
-43.274
-45.658
-47.891
-49.96
-51.854
-53.559
-55.063
-56.358
-57.435
-58.286
-58.907
-59.292
-59.44
-59.353
-59.037
-58.497
-57.741
-56.776
-55.608
-54.25
-52.713
-51.01
-49.155
-47.163
-45.052
-42.845
-40.564
-38.232
-35.871
-33.5
-31.138
-28.804
-26.514
-24.276
-22.107
-20.022
-18.04
-16.187
-14.477
-12.906
-11.48
-10.202
-9.064
-8.056
-7.152
-6.304
-5.486
-4.68
-3.882
-3.096
-2.29
-1.422
-0.456
0.635
1.818
3.04
4.306
5.653
7.091
8.588
9.999
11.149
12.017
12.577
12.721
12.233
10.631
7.46
2.647
-3.72
-11.536
-20.486
-30.187
-40.001
-48.479
-53.978
-55.531
-52.636
-45.206
-33.706
-18.756
-1.488
15.716
29.898
38.633
40.153
33.284
17.312
-6.138
-32.691
-57.682
-75.034
-83.909
-89.81
-91.697
-85.579
-60.109
6.075
120.498
280.735
477.027
684.144
884.438
1063.896
1202.964
1290.815
1313.098
1257.03
1125.572
925.413
673.201
395
115.867
-135.856
-336.407
-472.399
-542.552
-556.844
-528.634
-474.385
-405.255
-331.033
-265.689
-214.25
-179.544
-159.245
-141.144
-121.299
-100.325
-80.36
-69.3
-69.479
-78.225
-93.099
-109.591
-123.986
-134.891
-141.547
-144.003
-143.024
-139.39
-133.695
-126.691
-119.572
-113.575
-109.441
-107.398
-107.193
-108.283
-110.195
-112.57
-114.94
-116.779
-117.779
-117.809
-116.874
-115.135
-112.733
-109.728
-106.209
-102.272
-97.976
-93.396
-88.603
-83.641
-78.592
-73.522
-68.464
-63.452
-58.503
-53.611
-48.773
-43.972
-39.166
-34.33
-29.453
-24.525
-19.541
-14.487
-9.337
-4.068
1.341
6.906
12.64
18.556
24.663
30.963
37.45
44.114
50.938
57.912
65.024
72.264
79.618
87.067
94.592
102.174
109.79
117.414
125.018
132.569
140.034
147.38
154.575
161.586
168.378
174.918
181.174
187.112
192.703
197.915
202.719
207.087
210.992
214.411
217.32
219.701
221.537
222.815
223.524
223.658
223.215
222.194
220.6
218.439
215.723
212.465
208.684
204.4
199.637
194.422
188.787
182.764
176.388
169.698
162.731
155.528
148.131
140.579
132.915
125.18
117.415
109.659
101.953
94.335
86.842
79.51
72.372
65.458
58.799
52.419
46.341
40.586
35.17
30.108
25.41
21.085
17.137
13.567
10.376
7.559
5.108
3.014
1.264
-0.156
-1.263
-2.077
-2.617
-2.905
-2.963
-2.814
-2.481
-1.989
-1.361
-0.621
0.208
1.102
2.039
2.999
3.96
4.904
5.812
6.669
7.459
8.169
8.788
9.305
9.71
9.997
10.158
10.189
10.087
9.849
9.475
8.964
8.318
7.541
6.636
5.607
4.458
3.195
1.823
0.348
-1.224
-2.889
-4.641
-6.474
-8.383
-10.363
-12.409
-14.517
-16.683
-18.904
-21.176
-23.494
-25.858
-28.265
-30.712
-33.197
-35.717
-38.269
-40.851
-43.46
-46.091
-48.741
-51.404
-54.075
-56.749
-59.421
-62.084
-64.73
-67.352
-69.941
-72.489
-74.989
-77.43
-79.803
-82.098
-84.306
-86.418
-88.426
-90.319
-92.091
-93.732
-95.24
-96.61
-97.838
-98.923
-99.86
-100.648
-101.289
-101.782
-102.124
-102.314
-102.352
-102.24
-101.987
-101.601
-101.09
-100.463
-99.73
-98.903
-97.999
-97.029
-95.994
-94.901
-93.759
-92.584
-91.412
-90.269
-89.163
-88.11
-87.119
-86.194
-85.338
-84.536
-83.743
-82.926
-82.054
-81.114
-80.116
-79.054
-77.898
-76.612
-75.144
-73.467
-71.593
-69.516
-67.217
-64.727
-62.106
-59.476
-57.025
-54.872
-53.094
-51.781
-51.02
-50.942
-51.688
-53.339
-55.983
-59.753
-64.736
-70.95
-78.219
-86.076
-93.939
-101.246
-107.39
-111.695
-113.533
-112.57
-109.209
-104.415
-99.327
-95.172
-92.983
-93.965
-99.808
-110.035
-120.999
-129.018
-130.023
-124.084
-117.111
-110.014
-98.508
-71.83
-13.413
84.007
217.375
375.456
541.859
704.481
851.702
970.713
1045.833
1058.662
1001.657
878.236
702.294
496.418
277.276
60.007
-139.684
-309.035
-433.176
-506.561
-536.242
-534.782
-519.173
-498.874
-474.081
-443.21
-403.334
-355.678
-305.575
-257.667
-216.125
-183.683
-161.158
-148.019
-142.837
-144.005
-149.943
-159.419
-171.148
-183
-192.8
-199.409
-202.495
-202.343
-199.621
-194.806
-188.433
-181.645
-175.746
-171.454
-169.01
-168.206
-168.501
-169.536
-171.051
-172.591
-173.654
-173.936
-173.284
-171.739
-169.503
-166.696
-163.379
-159.633
-155.531
-151.151
-146.578
-141.875
-137.095
-132.278
-127.451
-122.634
-117.845
-113.082
-108.336
-103.584
-98.782
-93.902
-88.927
-83.851
-78.676
-73.393
-67.987
-62.439
-56.737
-50.872
-44.84
-38.636
-32.254
-25.698
-18.977
-12.108
-5.112
1.993
9.193
16.473
23.816
31.205
38.617
46.033
53.433
60.793
68.088
75.289
82.368
89.296
96.048
102.596
108.915
114.978
120.76
126.24
131.394
136.202
140.645
144.704
148.364
151.61
154.43
156.815
158.757
160.25
161.291
161.88
162.019
161.712
160.965
159.786
158.187
156.181
153.783
151.009
147.877
144.407
140.623
136.547
132.204
127.621
122.823
117.839
112.696
107.422
102.046
96.595
91.098
85.58
80.07
74.592
69.172
63.833
58.597
53.487
48.521
43.718
39.095
34.667
30.446
26.444
22.672
19.136
15.844
12.801
10.008
7.468
5.181
3.146
1.36
-0.181
-1.484
-2.553
-3.398
-4.027
-4.451
-4.682
-4.731
-4.611
-4.336
-3.92
-3.377
-2.724
-1.975
-1.146
-0.252
0.691
1.668
2.663
3.661
4.648
5.61
6.533
7.404
8.212
8.945
9.593
10.145
10.592
10.925
11.137
11.22
11.168
10.976
10.64
10.156
9.522
8.738
7.806
6.726
5.503
4.138
2.637
1.006
-0.747
-2.614
-4.588
-6.659
-8.814
-11.044
-13.334
-15.673
-18.048
-20.446
-22.853
-25.256
-27.641
-29.997
-32.311
-34.572
-36.766
-38.882
-40.91
-42.839
-44.66
-46.364
-47.944
-49.393
-50.708
-51.889
-52.937
-53.855
-54.644
-55.31
-55.86
-56.3
-56.638
-56.876
-57.02
-57.077
-57.058
-56.976
-56.845
-56.676
-56.48
-56.27
-56.063
-55.871
-55.699
-55.544
-55.409
-55.299
-55.23
-55.23
-55.317
-55.499
-55.788
-56.19
-56.708
-57.34
-58.061
-58.826
-59.598
-60.346
-61.054
-61.722
-62.325
-62.831
-63.192
-63.354
-63.287
-62.97
-62.364
-61.454
-60.26
-58.832
-57.274
-55.707
-54.217
-52.895
-51.847
-51.197
-51.083
-51.609
-52.894
-55.11
-58.382
-62.766
-68.136
-74.046
-79.924
-85.26
-89.472
-91.891
-91.97
-89.38
-84.491
-78.581
-73.163
-69.525
-68.897
-72.56
-81.673
-96.883
-115.823
-133.315
-144.565
-145.895
-138.089
-124.41
-103.026
-67.856
-9.223
82.29
206.231
354.08
513.05
669.688
814.363
936.526
1023.6
1059.786
1028.859
925.526
754.376
530.3
277.8
21.233
-215.185
-409.089
-545.555
-619.397
-634.71
-603.851
-545.611
-476.276
-410.577
-359.464
-322.89
-296.622
-272.024
-240.975
-204.537
-168.385
-140.186
-125.019
-122.122
-127.728
-137.406
-148.211
-158.172
-165.593
-169.697
-170.134
-167.078
-161.371
-153.725
-144.714
-135.428
-127.143
-120.621
-116.161
-113.608
-112.416
-112.115
-112.409
-112.853
-112.914
-112.281
-110.799
-108.461
-105.443
-101.879
-97.82
-93.353
-88.57
-83.533
-78.316
-72.981
-67.561
-62.122
-56.718
-51.373
-46.116
-40.95
-35.864
-30.846
-25.87
-20.893
-15.89
-10.845
-5.745
-0.585
4.651
9.986
15.44
21.033
26.779
32.688
38.772
45.038
51.482
58.097
64.87
71.783
78.822
85.973
93.221
100.551
107.943
115.376
122.826
130.271
137.684
145.035
152.292
159.423
166.396
173.181
179.745
186.058
192.089
197.809
203.189
208.201
212.82
217.02
220.777
224.07
226.879
229.187
230.979
232.244
232.971
233.155
232.793
231.884
230.431
228.44
225.919
222.879
219.336
215.306
210.809
205.866
200.502
194.745
188.624
182.169
175.414
168.39
161.133
153.678
146.061
138.317
130.482
122.592
114.682
106.787
98.941
91.177
83.528
76.021
68.687
61.552
54.639
47.972
41.57
35.452
29.632
24.123
18.938
14.084
9.567
5.392
1.559
-1.93
-5.079
-7.893
-10.376
-12.538
-14.387
-15.935
-17.194
-18.178
-18.902
-19.381
-19.634
-19.679
-19.534
-19.218
-18.753
-18.157
-17.451
-16.656
-15.792
-14.878
-13.934
-12.979
-12.032
-11.111
-10.232
-9.412
-8.666
-8.008
-7.452
-7.01
-6.693
-6.512
-6.475
-6.592
-6.872
-7.32
-7.943
-8.745
-9.729
-10.899
-12.256
-13.798
-15.524
-17.431
-19.513
-21.767
-24.185
-26.759
-29.481
-32.34
-35.325
-38.424
-41.624
-44.911
-48.268
-51.682
-55.134
-58.61
-62.094
-65.569
-69.018
-72.424
-75.771
-79.043
-82.224
-85.298
-88.248
-91.059
-93.717
-96.209
-98.523
-100.648
-102.574
-104.294
-105.804
-107.105
-108.194
-109.073
-109.746
-110.217
-110.494
-110.584
-110.493
-110.227
-109.795
-109.209
-108.486
-107.641
-106.692
-105.654
-104.546
-103.387
-102.198
-100.993
-99.776
-98.555
-97.341
-96.153
-95.025
-93.986
-93.05
-92.237
-91.561
-91.027
-90.636
-90.37
-90.177
-90.017
-89.853
-89.657
-89.433
-89.162
-88.812
-88.351
-87.718
-86.876
-85.818
-84.507
-82.919
-81.091
-79.081
-77.012
-75.086
-73.424
-72.137
-71.374
-71.223
-71.801
-73.238
-75.562
-78.869
-83.365
-89.146
-96.208
-104.417
-113.266
-122.143
-130.502
-137.54
-142.281
-143.99
-142.347
-137.595
-130.686
-123.156
-116.644
-112.816
-114.014
-120.594
-129.607
-138.181
-142.918
-143.672
-146.971
-155.505
-164.097
-160.272
-122.471
-34.359
104.177
283.367
484.244
684.967
872.076
1029.226
1136.917
1181.184
1147.835
1037.103
863.541
640.479
388.014
124.89
-131.276
-353.145
-519.557
-620.329
-657.18
-646.733
-605.492
-544.927
-473.028
-395.797
-324.806
-270.001
-234.814
-218.091
-211.027
-208.681
-213.698
-225.524
-241.93
-256.641
-257.81
-242.417
-216.282
-185.795
-160.105
-142.356
-128.027
-115.319
-102.725
-90.085
-80.66
-75.54
-74.257
-76.493
-81.008
-86.64
-92.883
-99.167
-105
-110.264
-114.885
-118.71
-121.621
-123.476
-124.104
-123.43
-121.455
-118.151
-113.511
-107.609
-100.578
-92.65
-84.138
-75.294
-66.281
-57.203
-48.115
-39.074
-30.148
-21.392
-12.832
-4.475
3.675
11.603
19.29
26.742
33.997
41.132
48.253
55.433
62.714
70.121
77.657
85.328
93.135
101.061
109.072
117.141
125.244
133.368
141.503
149.632
157.726
165.749
173.662
181.427
189.013
196.383
203.505
210.344
216.872
223.064
228.9
234.358
239.412
244.038
248.21
251.905
255.101
257.777
259.913
261.494
262.504
262.935
262.78
262.033
260.693
258.761
256.239
253.134
249.456
245.216
240.427
235.107
229.276
222.957
216.175
208.957
201.333
193.336
184.999
176.358
167.451
158.313
148.985
139.503
129.908
120.239
110.534
100.831
91.168
81.582
72.109
62.782
53.636
44.699
36.002
27.57
19.429
11.601
4.108
-3.035
-9.81
-16.205
-22.21
-27.816
-33.018
-37.814
-42.204
-46.189
-49.774
-52.966
-55.774
-58.209
-60.284
-62.015
-63.416
-64.506
-65.305
-65.832
-66.107
-66.153
-65.99
-65.641
-65.128
-64.473
-63.698
-62.827
-61.88
-60.88
-59.849
-58.806
-57.773
-56.768
-55.808
-54.911
-54.094
-53.37
-52.752
-52.254
-51.884
-51.653
-51.569
-51.638
-51.864
-52.251
-52.799
-53.508
-54.377
-55.403
-56.578
-57.898
-59.355
-60.939
-62.642
-64.453
-66.361
-68.351
-70.41
-72.524
-74.676
-76.851
-79.029
-81.193
-83.324
-85.404
-87.414
-89.336
-91.149
-92.834
-94.373
-95.747
-96.941
-97.936
-98.714
-99.261
-99.563
-99.608
-99.386
-98.886
-98.102
-97.029
-95.668
-94.021
-92.09
-89.881
-87.4
-84.656
-81.662
-78.428
-74.962
-71.276
-67.381
-63.293
-59.035
-54.626
-50.087
-45.437
-40.699
-35.895
-31.053
-26.191
-21.32
-16.456
-11.617
-6.832
-2.151
2.391
6.77
10.958
14.937
18.693
22.213
25.509
28.621
31.583
34.424
37.163
39.786
42.312
44.776
47.219
49.713
52.301
54.993
57.82
60.798
63.889
67.038
70.128
72.974
75.446
77.416
78.733
79.292
78.957
77.595
75.104
71.296
66.007
59.215
51.053
41.869
32.203
22.586
13.612
6.11
0.823
-1.809
-1.959
-0.528
1.373
2.437
1.254
-3.516
-13.565
-28.925
-46.176
-61.176
-69.681
-69.901
-66.481
-63.046
-56.737
-39.571
4.691
92.44
226.885
402.891
606.665
815.52
1011.277
1174.517
1283.869
1324.297
1283.33
1159.575
962.211
708.296
426.107
144.755
-102.92
-288.873
-405.691
-458.671
-468.714
-462.578
-451.861
-438.714
-417.693
-379.957
-326.621
-264.643
-201.736
-146.059
-101.567
-68.963
-48.435
-38.596
-37.34
-42.632
-52.34
-64.511
-77.177
-88.304
-95.988
-99.276
-98.299
-93.658
-86.175
-76.721
-66.2
-55.748
-46.654
-39.64
-34.809
-31.982
-30.68
-30.412
-30.816
-31.41
-31.641
-31.224
-30.047
-28.109
-25.574
-22.565
-19.13
-15.364
-11.361
-7.167
-2.846
1.555
6.004
10.433
14.791
19.054
23.198
27.223
31.138
34.956
38.709
42.441
46.179
49.945
53.753
57.611
61.54
65.568
69.716
74.005
78.453
83.071
87.87
92.856
98.024
103.365
108.862
114.494
120.243
126.092
132.021
138.01
144.035
150.069
156.085
162.058
167.954
173.74
179.381
184.842
190.086
195.082
199.795
204.192
208.24
211.91
215.172
218
220.368
222.254
223.638
224.502
224.832
224.619
223.856
222.539
220.669
218.251
215.293
211.807
207.808
203.315
198.35
192.938
187.107
180.888
174.313
167.417
160.237
152.811
145.18
137.384
129.466
121.466
113.427
105.391
97.397
89.488
81.7
74.072
66.639
59.435
52.492
45.838
39.499
33.5
27.86
22.597
17.725
13.256
9.196
5.551
2.322
-0.492
-2.895
-4.895
-6.5
-7.722
-8.574
-9.074
-9.237
-9.083
-8.632
-7.905
-6.925
-5.716
-4.3
-2.702
-0.946
0.942
2.939
5.02
7.161
9.338
11.53
13.715
15.87
17.976
20.014
21.967
23.818
25.554
27.159
28.623
29.935
31.087
32.07
32.878
33.505
33.948
34.203
34.269
34.143
33.826
33.317
32.62
31.736
30.67
29.426
28.009
26.423
24.675
22.772
20.722
18.533
16.212
13.77
11.216
8.563
5.82
3.001
0.115
-2.825
-5.808
-8.819
-11.849
-14.887
-17.921
-20.942
-23.937
-26.895
-29.806
-32.661
-35.45
-38.165
-40.795
-43.335
-45.779
-48.126
-50.376
-52.527
-54.579
-56.534
-58.393
-60.161
-61.839
-63.425
-64.917
-66.316
-67.63
-68.867
-70.036
-71.143
-72.197
-73.208
-74.188
-75.15
-76.096
-77.021
-77.926
-78.816
-79.712
-80.645
-81.637
-82.703
-83.857
-85.11
-86.464
-87.922
-89.455
-91.014
-92.555
-94.041
-95.453
-96.79
-98.025
-99.123
-100.038
-100.713
-101.117
-101.232
-101.025
-100.498
-99.69
-98.672
-97.575
-96.541
-95.691
-95.173
-95.127
-95.677
-96.969
-99.093
-102.17
-106.449
-112.059
-118.966
-127.029
-135.788
-144.676
-153.27
-160.932
-166.747
-170.123
-170.903
-169.402
-166.711
-164.292
-163.452
-165.546
-172.459
-184.334
-198.538
-212.215
-221.721
-226.092
-230.109
-235.7
-238.579
-228.811
-188.9
-105.46
21.243
183.134
364.33
545.929
716.274
860.795
962.559
1009.406
987.477
895.328
743.264
541.44
310.034
68.897
-163.029
-358.506
-500.424
-583.63
-612.731
-607.731
-587.762
-561.593
-532.373
-496.395
-449.266
-394.458
-338.485
-287.984
-249.672
-225.702
-214.759
-215.107
-224.123
-238.614
-255.907
-273.319
-287.743
-297.434
-301.952
-301.253
-296.115
-287.858
-277.667
-266.999
-257.643
-250.57
-246.097
-244.3
-244.717
-246.797
-250.071
-253.836
-257.336
-260.152
-262.08
-263.065
-263.237
-262.653
-261.335
-259.381
-256.884
-253.909
-250.506
-246.681
-242.446
-237.859
-233.004
-227.98
-222.861
-217.683
-212.464
-207.211
-201.924
-196.605
-191.239
-185.799
-180.273
-174.654
-168.938
-163.129
-157.219
-151.192
-145.036
-138.735
-132.28
-125.671
-118.91
-112.005
-104.969
-97.819
-90.575
-83.262
-75.902
-68.513
-61.117
-53.733
-46.383
-39.09
-31.879
-24.772
-17.793
-10.971
-4.329
2.104
8.306
14.252
19.921
25.289
30.339
35.05
39.406
43.391
46.993
50.199
52.999
55.384
57.35
58.893
60.012
60.708
60.985
60.849
60.309
59.378
58.067
56.394
54.374
52.029
49.378
46.444
43.25
39.822
36.184
32.364
28.39
24.288
20.087
15.814
11.496
7.16
2.832
-1.464
-5.704
-9.865
-13.928
-17.871
-21.676
-25.328
-28.809
-32.108
-35.212
-38.112
-40.8
-43.27
-45.518
-47.543
-49.343
-50.921
-52.281
-53.426
-54.363
-55.101
-55.648
-56.015
-56.214
-56.256
-56.154
-55.923
-55.577
-55.129
-54.595
-53.99
-53.327
-52.622
-51.889
-51.141
-50.392
-49.654
-48.941
-48.263
-47.632
-47.057
-46.55
-46.117
-45.769
-45.511
-45.351
-45.294
-45.346
-45.51
-45.79
-46.187
-46.704
-47.341
-48.096
-48.969
-49.955
-51.054
-52.261
-53.572
-54.982
-56.484
-58.074
-59.744
-61.487
-63.295
-65.16
-67.073
-69.026
-71.01
-73.017
-75.039
-77.067
-79.093
-81.11
-83.108
-85.082
-87.021
-88.918
-90.765
-92.557
-94.287
-95.948
-97.536
-99.048
-100.484
-101.844
-103.13
-104.342
-105.481
-106.553
-107.565
-108.524
-109.438
-110.306
-111.134
-111.928
-112.696
-113.45
-114.193
-114.925
-115.65
-116.371
-117.098
-117.846
-118.613
-119.386
-120.156
-120.912
-121.66
-122.423
-123.211
-124.022
-124.86
-125.725
-126.627
-127.582
-128.575
-129.567
-130.512
-131.349
-132.057
-132.641
-133.108
-133.477
-133.729
-133.79
-133.605
-133.124
-132.309
-131.177
-129.72
-127.871
-125.702
-123.418
-121.36
-120.078
-119.895
-120.812
-122.782
-125.723
-129.515
-134.048
-138.732
-142.363
-144.085
-143.57
-140.875
-136.473
-130.632
-123.426
-115.591
-108.776
-104.761
-105.018
-110.19
-119.991
-134.366
-153.285
-176.167
-201.689
-225.57
-241.58
-245.348
-232.965
-205.298
-168.724
-123.748
-69.382
-0.848
95.471
222.858
378.777
557.309
738.457
904.992
1039.463
1120.528
1135.83
1076.897
943.522
746.314
502.574
236.811
-24.044
-251.122
-422.015
-527.894
-570.763
-565.434
-530.539
-477.631
-415.983
-352.255
-289.456
-234.688
-191.446
-156.313
-127.884
-102.808
-80.124
-64.57
-57.644
-59.106
-67.498
-78.407
-88.741
-96.911
-101.469
-102.267
-99.814
-94.525
-87.112
-78.392
-69.08
-60.03
-52.28
-46.368
-42.263
-39.758
-38.387
-37.672
-37.335
-37.004
-36.187
-34.626
-32.227
-28.978
-25.035
-20.518
-15.455
-9.921
-4.008
2.23
8.716
15.385
22.205
29.111
36.053
43.002
49.929
56.821
63.684
70.521
77.352
84.208
91.1
98.039
105.031
112.076
119.184
126.372
133.65
141.029
148.514
156.109
163.816
171.634
179.554
187.562
195.642
203.771
211.932
220.108
228.28
236.431
244.537
252.577
260.526
268.362
276.059
283.587
290.917
298.021
304.87
311.435
317.692
323.612
329.17
334.343
339.107
343.442
347.327
350.744
353.676
356.11
358.033
359.435
360.31
360.652
360.458
359.731
358.474
356.692
354.395
351.593
348.302
344.538
340.319
335.668
330.607
325.162
319.361
313.234
306.81
300.123
293.204
286.088
278.808
271.398
263.891
256.321
248.72
241.12
233.551
226.045
218.628
211.327
204.169
197.176
190.371
183.772
177.397
171.263
165.381
159.763
154.419
149.353
144.572
140.077
135.867
131.941
128.294
124.922
121.814
118.963
116.356
113.982
111.826
109.875
108.112
106.522
105.087
103.793
102.621
101.554
100.576
99.67
98.821
98.012
97.229
96.456
95.681
94.89
94.071
93.213
92.306
91.339
90.304
89.195
88.005
86.732
85.37
83.919
82.376
80.743
79.022
77.215
75.327
73.362
71.326
69.227
67.073
64.873
62.635
60.37
58.087
55.798
53.513
51.242
48.995
46.781
44.611
42.493
40.437
38.451
36.544
34.722
32.994
31.367
29.847
28.436
27.135
25.942
24.857
23.879
23.002
22.221
21.531
20.927
20.41
19.977
19.625
19.344
19.127
18.964
18.849
18.775
18.734
18.713
18.706
18.712
18.734
18.776
18.829
18.876
18.891
18.851
18.742
18.555
18.276
17.895
17.411
16.839
16.216
15.578
14.95
14.344
13.767
13.245
12.813
12.53
12.458
12.641
13.115
13.903
15.008
16.405
18.048
19.852
21.703
23.477
25.029
26.227
26.948
27.078
26.492
24.945
22.206
18.175
12.947
6.863
0.395
-6.043
-11.995
-16.738
-19.588
-20.172
-18.766
-16.423
-14.405
-14.069
-16.845
-24.213
-37.851
-57.235
-78.667
-98.283
-111.97
-119.995
-127.928
-135.502
-137.148
-119.678
-63.289
39.36
183.433
354.993
532.216
702.404
859.719
995.448
1099.529
1153.761
1137.423
1043.085
874.158
645.961
385.044
117.628
-129.777
-331.55
-470.69
-543.718
-559.001
-535.2
-497.126
-457.686
-421.429
-388.661
-349.237
-300.893
-247.123
-190.067
-139.368
-101.039
-75.688
-64.196
-63.279
-69.222
-80.425
-94.683
-109.79
-123.793
-134.479
-140.631
-142.286
-139.928
-134.277
-126.198
-116.684
-106.978
-98.421
-91.744
-87.041
-84.1
-82.438
-81.634
-81.361
-81.139
-80.454
-79.027
-76.756
-73.687
-70.007
-65.828
-61.2
-56.212
-50.942
-45.462
-39.848
-34.15
-28.409
-22.663
-16.938
-11.253
-5.623
-0.044
5.491
11.003
16.529
22.09
27.698
33.358
39.069
44.838
50.681
56.614
62.65
68.799
75.065
81.451
87.962
94.594
101.335
108.165
115.064
122.009
128.985
135.972
142.949
149.896
156.785
163.592
170.292
176.854
183.248
189.439
195.395
201.081
206.466
211.519
216.209
220.506
224.381
227.808
230.762
233.218
235.156
236.554
237.396
237.666
237.354
236.451
234.95
232.848
230.147
226.85
222.965
218.502
213.475
207.9
201.796
195.186
188.097
180.555
172.592
164.239
155.531
146.506
137.202
127.656
117.909
108.001
97.972
87.863
77.714
67.565
57.453
47.418
37.495
27.719
18.125
8.743
-0.397
-9.27
-17.848
-26.112
-34.039
-41.614
-48.821
-55.65
-62.091
-68.139
-73.789
-79.043
-83.903
-88.374
-92.464
-96.182
-99.541
-102.556
-105.241
-107.614
-109.694
-111.498
-113.049
-114.368
-115.478
-116.401
-117.163
-117.787
-118.296
-118.715
-119.067
-119.375
-119.661
-119.946
-120.252
-120.598
-121.003
-121.487
-122.064
-122.75
-123.558
-124.5
-125.585
-126.82
-128.209
-129.755
-131.459
-133.321
-135.336
-137.498
-139.799
-142.236
-144.801
-147.485
-150.277
-153.165
-156.137
-159.184
-162.289
-165.433
-168.592
-171.744
-174.866
-177.941
-180.948
-183.868
-186.681
-189.367
-191.911
-194.305
-196.537
-198.588
-200.432
-202.041
-203.402
-204.527
-205.438
-206.149
-206.672
-207.022
-207.22
-207.303
-207.292
-207.179
-206.933
-206.518
-205.92
-205.155
-204.266
-203.292
-202.247
-201.108
-199.837
-198.417
-196.841
-195.09
-193.122
-190.873
-188.318
-185.514
-182.586
-179.652
-176.774
-173.96
-171.161
-168.347
-165.531
-162.751
-160.057
-157.465
-154.986
-152.652
-150.544
-148.771
-147.388
-146.35
-145.499
-144.723
-144.02
-143.469
-143.244
-143.482
-144.222
-145.509
-147.437
-150.107
-153.635
-158.085
-163.37
-169.435
-176.393
-184.338
-193.332
-203.23
-213.467
-223.358
-232.312
-239.63
-244.464
-246.199
-244.576
-239.883
-233.216
-226.098
-219.987
-216.354
-217.222
-223.103
-231.692
-240.069
-244.316
-242.519
-238.997
-237.151
-234.297
-222.676
-185.589
-105.686
20.807
188.736
383.808
582.779
769.217
928.635
1043.764
1103.301
1094.102
1005.255
838.349
602.626
320.272
27.274
-238.912
-445.54
-575.636
-636.69
-648.403
-633.527
-608.456
-572.278
-523.04
-463.358
-397.428
-339.945
-298.58
-269.681
-251.287
-236.433
-221.689
-212.041
-208.793
-211.698
-219.848
-228.481
-233.826
-234.904
-231.475
-224.137
-214.099
-202.356
-189.575
-176.859
-165.644
-156.565
-149.874
-145.645
-143.365
-142.538
-142.793
-143.472
-143.884
-143.666
-142.597
-140.602
-137.8
-134.238
-129.945
-125.038
-119.621
-113.779
-107.578
-101.043
-94.204
-87.128
-79.91
-72.654
-65.435
-58.287
-51.23
-44.269
-37.4
-30.616
-23.89
-17.183
-10.469
-3.732
3.044
9.864
16.748
23.719
30.8
38.01
45.367
52.878
60.548
68.377
76.356
84.475
92.716
101.059
109.486
117.98
126.521
135.089
143.662
152.216
160.724
169.159
177.49
185.684
193.709
201.53
209.112
216.422
223.427
230.093
236.388
242.281
247.742
252.744
257.261
261.265
264.737
267.654
270
271.76
272.922
273.477
273.419
272.748
271.464
269.572
267.08
264
260.346
256.135
251.388
246.129
240.384
234.182
227.553
220.533
213.156
205.461
197.486
189.271
180.857
172.284
163.594
154.826
146.022
137.22
128.46
119.778
111.211
102.793
94.557
86.533
78.748
71.229
63.998
57.075
50.479
44.222
38.317
32.773
27.596
22.789
18.352
14.282
10.576
7.226
4.223
1.553
-0.795
-2.839
-4.595
-6.081
-7.318
-8.326
-9.126
-9.741
-10.193
-10.504
-10.697
-10.795
-10.819
-10.791
-10.731
-10.66
-10.596
-10.558
-10.563
-10.625
-10.76
-10.978
-11.292
-11.712
-12.243
-12.892
-13.663
-14.557
-15.575
-16.717
-17.981
-19.361
-20.853
-22.45
-24.145
-25.928
-27.791
-29.722
-31.708
-33.739
-35.803
-37.887
-39.977
-42.062
-44.127
-46.162
-48.156
-50.098
-51.976
-53.781
-55.503
-57.134
-58.667
-60.096
-61.414
-62.618
-63.707
-64.684
-65.556
-66.325
-66.999
-67.587
-68.097
-68.542
-68.931
-69.267
-69.557
-69.81
-70.036
-70.252
-70.469
-70.699
-70.953
-71.245
-71.59
-72.001
-72.481
-73.027
-73.637
-74.318
-75.085
-75.968
-76.986
-78.151
-79.475
-80.966
-82.625
-84.449
-86.408
-88.451
-90.529
-92.601
-94.639
-96.631
-98.542
-100.325
-101.924
-103.268
-104.316
-105.038
-105.386
-105.349
-104.957
-104.269
-103.404
-102.499
-101.662
-101.025
-100.743
-100.966
-101.866
-103.568
-106.206
-110.014
-115.138
-121.583
-129.167
-137.36
-145.517
-153.107
-159.498
-163.906
-165.772
-164.894
-161.811
-157.967
-154.905
-154.066
-156.828
-164.386
-177.95
-196.801
-216.885
-233.17
-240.1
-235.125
-222.114
-203.349
-177.759
-140.242
-76.167
26.574
172.018
357.954
567.051
774.947
955.637
1082.336
1138.792
1116.426
1018.541
856.039
639.074
388.936
126.432
-123.68
-327.765
-471.813
-553.807
-583.794
-588.999
-583.77
-571.074
-549.267
-509.039
-449.77
-379.133
-305.455
-237.774
-181.245
-137.825
-108.535
-92.577
-88.225
-93.163
-104.514
-119.911
-137.112
-153.174
-165.483
-172.674
-174.433
-171.419
-164.764
-155.354
-144.098
-132.478
-122.047
-113.662
-107.58
-103.505
-100.789
-98.994
-97.802
-96.698
-95.133
-92.781
-89.507
-85.383
-80.64
-75.414
-69.767
-63.784
-57.542
-51.122
-44.608
-38.062
-31.528
-25.048
-18.649
-12.352
-6.176
-0.12
5.824
11.681
17.486
23.267
29.036
34.796
40.547
46.297
52.064
57.868
63.726
69.652
75.657
81.749
87.939
94.228
100.612
107.08
113.614
120.201
126.831
133.493
140.175
146.863
153.538
160.183
166.78
173.305
179.734
186.039
192.191
198.162
203.924
209.448
214.708
219.675
224.322
228.624
232.557
236.095
239.217
241.9
244.126
245.876
247.135
247.89
248.129
247.845
247.032
245.689
243.814
241.413
238.49
235.054
231.117
226.693
221.799
216.455
210.681
204.502
197.946
191.041
183.819
176.313
168.556
160.585
152.434
144.142
135.745
127.28
118.783
110.292
101.841
93.467
85.203
77.081
69.134
61.39
53.877
46.621
39.643
32.965
26.606
20.58
14.902
9.582
4.629
0.048
-4.157
-7.985
-11.438
-14.521
-17.239
-19.602
-21.621
-23.309
-24.681
-25.755
-26.548
-27.081
-27.375
-27.453
-27.337
-27.052
-26.621
-26.07
-25.423
-24.705
-23.939
-23.149
-22.358
-21.589
-20.863
-20.199
-19.616
-19.132
-18.762
-18.522
-18.424
-18.477
-18.691
-19.072
-19.626
-20.356
-21.263
-22.347
-23.606
-25.036
-26.63
-28.382
-30.28
-32.315
-34.472
-36.738
-39.098
-41.535
-44.033
-46.574
-49.14
-51.715
-54.28
-56.819
-59.314
-61.747
-64.102
-66.365
-68.52
-70.552
-72.449
-74.2
-75.799
-77.243
-78.531
-79.66
-80.632
-81.451
-82.122
-82.651
-83.04
-83.288
-83.399
-83.38
-83.241
-82.994
-82.65
-82.219
-81.717
-81.159
-80.561
-79.933
-79.281
-78.602
-77.902
-77.193
-76.496
-75.847
-75.272
-74.792
-74.425
-74.189
-74.091
-74.13
-74.283
-74.502
-74.749
-74.993
-75.209
-75.386
-75.497
-75.5
-75.352
-75
-74.385
-73.467
-72.229
-70.668
-68.824
-66.76
-64.537
-62.278
-60.127
-58.215
-56.685
-55.651
-55.179
-55.403
-56.567
-58.857
-62.336
-66.916
-72.216
-77.75
-83.094
-87.682
-90.703
-91.477
-89.769
-85.848
-80.688
-75.91
-73.157
-73.963
-80.453
-92.919
-108.659
-125.029
-138.637
-148.709
-160.277
-174.719
-186.655
-184.593
-149.254
-66.782
62.102
227.807
412.712
598.332
774.055
927.548
1043.531
1106.486
1098.775
1013.64
857.199
644.777
401.8
154.712
-72.432
-259.536
-394.225
-474.907
-506.699
-497.633
-462.312
-411.576
-356.691
-314.09
-288.939
-282.319
-289.441
-293.936
-287.101
-266.484
-233.949
-199.393
-168.742
-143.36
-123.117
-105.419
-89.756
-77.687
-70.096
-67.413
-68.731
-71.877
-75.529
-79.009
-81.695
-83.231
-83.377
-82.016
-79.61
-77.259
-75.572
-74.648
-74.519
-74.939
-75.697
-76.756
-77.831
-78.39
-78.123
-76.871
-74.509
-71.161
-66.941
-61.907
-56.272
-50.243
-43.96
-37.591
-31.236
-24.917
-18.672
-12.508
-6.386
-0.305
5.737
11.753
17.7
23.568
29.376
35.149
40.944
46.813
52.786
58.901
65.199
71.701
78.419
85.347
92.45
99.707
107.103
114.618
122.247
129.978
137.787
145.652
153.548
161.446
169.319
177.136
184.858
192.45
199.878
207.114
214.133
220.908
227.411
233.612
239.485
245.002
250.136
254.86
259.145
262.967
266.302
269.13
271.436
273.205
274.424
275.085
275.182
274.711
273.673
272.069
269.905
267.189
263.929
260.141
255.84
251.044
245.774
240.054
233.91
227.369
220.46
213.216
205.667
197.846
189.788
181.528
173.099
164.538
155.88
147.161
138.419
129.689
121.005
112.401
103.909
95.561
87.385
79.408
71.656
64.151
56.914
49.965
43.32
36.995
31
25.345
20.038
15.082
10.481
6.233
2.335
-1.216
-4.427
-7.306
-9.863
-12.109
-14.057
-15.722
-17.119
-18.265
-19.176
-19.873
-20.375
-20.703
-20.875
-20.913
-20.837
-20.666
-20.422
-20.121
-19.782
-19.423
-19.06
-18.709
-18.386
-18.103
-17.872
-17.703
-17.606
-17.588
-17.653
-17.805
-18.046
-18.374
-18.79
-19.291
-19.874
-20.532
-21.26
-22.051
-22.899
-23.794
-24.727
-25.687
-26.663
-27.644
-28.622
-29.586
-30.527
-31.436
-32.306
-33.136
-33.922
-34.663
-35.356
-35.998
-36.586
-37.124
-37.615
-38.06
-38.462
-38.826
-39.159
-39.475
-39.79
-40.112
-40.453
-40.818
-41.214
-41.658
-42.158
-42.72
-43.35
-44.053
-44.84
-45.736
-46.751
-47.885
-49.138
-50.505
-51.974
-53.537
-55.175
-56.847
-58.527
-60.192
-61.824
-63.418
-64.953
-66.405
-67.758
-69.007
-70.168
-71.257
-72.263
-73.147
-73.915
-74.649
-75.448
-76.382
-77.543
-79.072
-81.206
-84.4
-89.078
-95.323
-103.122
-112.453
-122.988
-134.304
-145.714
-155.787
-163.065
-166.775
-166.463
-162.038
-154.047
-143.041
-130.118
-117.813
-108.868
-105.322
-108.589
-119.018
-136.245
-159.895
-188.482
-218.283
-244.614
-262.707
-267.912
-256.541
-225.2
-170.185
-90.613
9.8
125.779
250.76
380.877
517.281
658.161
796.807
918.817
1002.538
1028.603
984.941
871.354
698.146
482.472
245.663
9.146
-205.387
-379.361
-500.786
-566.634
-582.126
-558.128
-509.525
-449.418
-391.308
-346.095
-315.992
-298.163
-283.288
-262.163
-233.437
-201.285
-173.496
-155.341
-146.883
-145.478
-147.304
-150.306
-153.572
-155.61
-155.723
-153.683
-149.438
-143.675
-136.961
-129.435
-121.689
-114.855
-109.659
-106.368
-104.94
-104.833
-105.514
-106.749
-108.178
-109.282
-109.756
-109.421
-108.194
-106.228
-103.665
-100.551
-96.978
-93.035
-88.765
-84.247
-79.555
-74.735
-69.873
-65.031
-60.237
-55.519
-50.886
-46.326
-41.831
-37.37
-32.892
-28.361
-23.753
-19.054
-14.257
-9.347
-4.299
0.91
6.298
11.879
17.659
23.646
29.844
36.247
42.845
49.618
56.542
63.597
70.764
78.025
85.356
92.736
100.135
107.528
114.888
122.183
129.379
136.439
143.328
150.01
156.448
162.609
168.457
173.959
179.081
183.793
188.067
191.874
195.189
197.989
200.252
201.961
203.102
203.662
203.632
203.006
201.782
199.961
197.549
194.553
190.983
186.855
182.187
176.999
171.314
165.16
158.565
151.56
144.179
136.458
128.435
120.149
111.641
102.951
94.122
85.195
76.212
67.215
58.244
49.338
40.537
31.878
23.397
15.126
7.099
-0.655
-8.109
-15.238
-22.02
-28.435
-34.467
-40.103
-45.331
-50.146
-54.541
-58.516
-62.072
-65.212
-67.943
-70.273
-72.215
-73.781
-74.987
-75.852
-76.394
-76.635
-76.598
-76.306
-75.784
-75.057
-74.151
-73.093
-71.907
-70.621
-69.261
-67.852
-66.42
-64.991
-63.588
-62.234
-60.951
-59.759
-58.678
-57.725
-56.914
-56.259
-55.771
-55.46
-55.334
-55.4
-55.662
-56.121
-56.777
-57.63
-58.677
-59.91
-61.323
-62.906
-64.65
-66.542
-68.572
-70.725
-72.987
-75.342
-77.776
-80.272
-82.816
-85.39
-87.976
-90.558
-93.121
-95.648
-98.127
-100.541
-102.878
-105.127
-107.281
-109.335
-111.283
-113.121
-114.846
-116.458
-117.96
-119.353
-120.636
-121.81
-122.875
-123.839
-124.711
-125.5
-126.217
-126.872
-127.474
-128.037
-128.577
-129.102
-129.609
-130.104
-130.589
-131.081
-131.61
-132.196
-132.851
-133.589
-134.418
-135.341
-136.355
-137.439
-138.541
-139.621
-140.64
-141.572
-142.42
-143.161
-143.759
-144.179
-144.359
-144.257
-143.863
-143.136
-142.049
-140.64
-138.965
-137.143
-135.368
-133.752
-132.398
-131.452
-130.997
-131.152
-132.051
-133.725
-136.275
-139.924
-144.765
-150.793
-157.878
-165.495
-173.027
-179.96
-185.52
-188.76
-189.019
-186.025
-180.054
-172.141
-163.815
-156.592
-152.015
-152.247
-157.639
-165.464
-172.948
-176.596
-175.51
-175.145
-178.04
-179.714
-169.922
-130.017
-44.396
87.957
259.666
455.301
654.666
843.81
1006.383
1122.161
1174.176
1147.138
1037.878
856.794
622.518
361.069
98.188
-140.02
-331.179
-463.609
-534.48
-552.985
-535.118
-493.166
-437.942
-378.176
-318.049
-264.003
-219.637
-181.958
-150.008
-121.925
-97.503
-81.485
-75.536
-78.778
-88.542
-99.81
-108.9
-113.911
-114.183
-110.067
-102.152
-91.424
-79.184
-66.757
-55.619
-46.725
-40.338
-36.52
-34.985
-35.245
-36.8
-38.932
-40.869
-42.133
-42.539
-42.139
-40.981
-38.927
-35.828
-31.571
-26.289
-20.429
-14.201
-7.506
-0.561
6.189
12.219
16.707
19.542
21.522
23.081
24.321
25.644
27.436
30.294
35.323
42.641
51.256
60.575
70.237
79.817
89.191
97.967
105.261
110.988
115.864
120.32
124.735
129.402
134.206
139.193
144.725
150.786
157.087
163.523
169.9
176.007
182.04
188.388
195.062
201.9
208.942
215.803
223.157
233.423
246.231
259.192
268.779
268.064
256.827
242.123
230.758
232.442
248.626
269.907
288.957
298.133
295.407
287.733
279.594
273.8
271.503
269.895
267.542
264.588
260.914
256.94
252.828
248.206
242.963
237.188
230.898
224.1
216.838
209.16
201.134
192.861
184.4
175.757
166.958
158.046
149.057
140.032
131.008
122.011
113.075
104.238
95.535
86.999
78.658
70.541
62.671
55.074
47.769
40.776
34.11
27.787
21.816
16.207
10.966
6.096
1.599
-2.527
-6.287
-9.686
-12.732
-15.438
-17.815
-19.879
-21.646
-23.133
-24.359
-25.346
-26.113
-26.684
-27.081
-27.328
-27.447
-27.461
-27.394
-27.269
-27.106
-26.928
-26.754
-26.604
-26.497
-26.449
-26.477
-26.597
-26.822
-27.165
-27.636
-28.245
-28.999
-29.904
-30.962
-32.177
-33.548
-35.076
-36.757
-38.587
-40.559
-42.668
-44.903
-47.255
-49.711
-52.257
-54.879
-57.561
-60.288
-63.044
-65.811
-68.573
-71.313
-74.015
-76.663
-79.243
-81.738
-84.132
-86.411
-88.561
-90.571
-92.426
-94.116
-95.632
-96.967
-98.12
-99.089
-99.873
-100.474
-100.895
-101.14
-101.216
-101.128
-100.876
-100.465
-99.9
-99.192
-98.357
-97.409
-96.361
-95.227
-94.023
-92.766
-91.474
-90.153
-88.8
-87.421
-86.024
-84.628
-83.272
-81.984
-80.781
-79.684
-78.703
-77.845
-77.116
-76.49
-75.917
-75.356
-74.763
-74.116
-73.418
-72.646
-71.767
-70.74
-69.491
-67.976
-66.178
-64.056
-61.601
-58.851
-55.86
-52.747
-49.688
-46.82
-44.3
-42.31
-40.981
-40.468
-40.892
-42.368
-45.134
-49.363
-55.054
-62.026
-69.822
-77.85
-85.626
-92.556
-97.778
-100.597
-100.673
-98.404
-95.039
-91.919
-90.423
-91.935
-97.677
-109.114
-125.607
-143.003
-156.816
-162.146
-157.23
-146.974
-133.227
-113.39
-80.906
-19.797
82.01
227.055
412.773
623.296
835.74
1026.431
1167.833
1237.506
1223.014
1123.482
949.667
720.82
460.94
193.365
-56.966
-266.147
-418.588
-509.418
-546.982
-550.16
-537.988
-519.967
-497.131
-465.494
-420.195
-363.431
-302.283
-243.521
-193.601
-156.174
-131.178
-117.297
-112.737
-114.982
-121.427
-130.216
-139.131
-145.458
-147.859
-145.944
-139.807
-130.555
-119.543
-107.745
-96.491
-87.404
-81.272
-78.291
-78.279
-80.533
-84.346
-89.184
-94.404
-99.264
-103.33
-106.397
-108.368
-109.321
-109.276
-108.138
-105.88
-102.567
-98.269
-93.114
-87.283
-80.898
-74.099
-67.07
-59.926
-52.751
-45.607
-38.485
-31.369
-24.266
-17.187
-10.161
-3.23
3.598
10.33
16.994
23.652
30.358
37.16
44.114
51.261
58.619
66.2
73.985
81.939
90.036
98.254
106.573
114.981
123.46
131.985
140.529
149.059
157.543
165.945
174.226
182.344
190.261
197.941
205.354
212.473
219.27
225.713
231.776
237.427
242.638
247.382
251.629
255.353
258.528
261.132
263.148
264.56
265.355
265.524
265.061
263.963
262.232
259.871
256.888
253.294
249.102
244.329
238.996
233.124
226.739
219.869
212.545
204.797
196.662
188.176
179.376
170.3
160.988
151.481
141.819
132.043
122.193
112.311
102.438
92.614
82.878
73.27
63.824
54.577
45.56
36.804
28.335
20.18
12.359
4.891
-2.206
-8.919
-15.238
-21.155
-26.666
-31.768
-36.462
-40.751
-44.641
-48.14
-51.258
-54.008
-56.402
-58.458
-60.191
-61.622
-62.769
-63.656
-64.303
-64.734
-64.975
-65.049
-64.983
-64.803
-64.534
-64.201
-63.83
-63.445
-63.069
-62.725
-62.435
-62.216
-62.089
-62.069
-62.174
-62.415
-62.804
-63.352
-64.067
-64.955
-66.021
-67.268
-68.696
-70.306
-72.094
-74.06
-76.198
-78.502
-80.963
-83.574
-86.323
-89.199
-92.189
-95.277
-98.446
-101.68
-104.961
-108.271
-111.59
-114.898
-118.176
-121.402
-124.56
-127.631
-130.595
-133.433
-136.129
-138.667
-141.032
-143.211
-145.193
-146.965
-148.52
-149.853
-150.963
-151.847
-152.503
-152.932
-153.133
-153.11
-152.867
-152.407
-151.733
-150.852
-149.773
-148.507
-147.071
-145.479
-143.744
-141.881
-139.902
-137.824
-135.656
-133.407
-131.085
-128.704
-126.28
-123.841
-121.405
-118.984
-116.59
-114.232
-111.91
-109.618
-107.337
-105.028
-102.667
-100.239
-97.733
-95.16
-92.507
-89.737
-86.835
-83.776
-80.557
-77.212
-73.72
-70.029
-66.172
-62.212
-58.264
-54.549
-51.135
-47.972
-45.213
-43.097
-41.878
-41.896
-43.163
-45.403
-48.686
-53.231
-58.841
-65.014
-70.802
-74.876
-76.702
-76.384
-73.516
-67.612
-58.849
-47.998
-36.809
-28.021
-23.381
-23.416
-29.482
-41.634
-57.273
-73.897
-87.806
-96.573
-103.405
-109.637
-110.855
-98.432
-57.319
24.287
145.677
299.648
473.123
649.377
817.838
965.71
1075.424
1134.925
1130.333
1053.897
911.3
707.741
458.889
190.977
-70.031
-289.811
-443.291
-527.108
-550.015
-536.338
-511.208
-484.003
-456.029
-421.829
-374.368
-316.065
-254.101
-195.769
-148.554
-115.876
-97.254
-91.257
-95.688
-107.841
-125.092
-145.007
-164.586
-180.897
-192.443
-198.659
-199.648
-196.33
-189.823
-181.166
-171.92
-163.814
-157.76
-154.135
-152.928
-153.673
-155.877
-159.107
-162.728
-166.034
-168.65
-170.419
-171.316
-171.485
-171.021
-169.965
-168.412
-166.471
-164.198
-161.63
-158.789
-155.675
-152.333
-148.84
-145.24
-141.561
-137.814
-133.986
-130.064
-126.037
-121.876
-117.543
-113.016
-108.276
-103.311
-98.115
-92.67
-86.952
-80.942
-74.617
-67.963
-60.966
-53.62
-45.925
-37.887
-29.52
-20.842
-11.875
-2.641
6.842
16.549
26.455
36.533
46.753
57.082
67.487
77.931
88.373
98.772
109.086
119.274
129.295
139.108
148.674
157.951
166.902
175.489
183.679
191.434
198.723
205.514
211.78
217.495
222.635
227.182
231.118
234.432
237.113
239.157
240.563
241.332
241.469
240.983
239.888
238.199
235.936
233.121
229.779
225.938
221.629
216.885
211.743
206.237
200.406
194.288
187.923
181.35
174.608
167.738
160.779
153.768
146.745
139.747
132.808
125.965
119.249
112.691
106.321
100.164
94.244
88.583
83.201
78.112
73.331
68.868
64.732
60.927
57.456
54.318
51.512
49.032
46.87
45.016
43.459
42.186
41.181
40.428
39.91
39.608
39.503
39.575
39.803
40.167
40.645
41.216
41.858
42.552
43.275
44.009
44.733
45.428
46.076
46.662
47.169
47.583
47.891
48.082
48.148
48.081
47.876
47.527
47.033
46.393
45.609
44.683
43.621
42.428
41.112
39.682
38.149
36.524
34.82
33.049
31.225
29.362
27.476
25.581
23.691
21.821
19.986
18.201
16.481
14.839
13.288
11.84
10.507
9.3
8.227
7.294
6.502
5.851
5.343
4.976
4.744
4.641
4.66
4.794
5.042
5.399
5.855
6.399
7.016
7.691
8.409
9.158
9.92
10.678
11.416
12.127
12.81
13.462
14.07
14.613
15.054
15.365
15.526
15.519
15.333
14.962
14.408
13.693
12.864
11.96
11.014
10.041
9.041
8.033
7.042
6.114
5.314
4.687
4.271
4.1
4.165
4.427
4.825
5.248
5.573
5.68
5.435
4.736
3.501
1.638
-0.901
-4.256
-8.707
-14.381
-21.296
-29.319
-37.923
-46.53
-54.681
-61.572
-66.195
-68.038
-66.844
-62.893
-57.776
-53.328
-51.103
-53.418
-61.406
-73.398
-87.625
-101.726
-114.927
-131.64
-153.817
-177.049
-189.115
-169.462
-103.233
11.472
164.609
336.385
512.078
685.029
846.967
987.38
1085.806
1115.227
1063.156
931.095
734.322
502.399
260.248
29.117
-167.971
-317.122
-411.647
-453.42
-460.068
-451.267
-438.096
-424.898
-406.826
-377.281
-337.998
-294.268
-251.318
-214.04
-183.351
-158.284
-139.195
-125.822
-116.851
-111.044
-107.707
-106.636
-107.987
-111.597
-116.042
-119.695
-122.038
-123.142
-123.083
-121.889
-119.383
-115.515
-111.05
-107.067
-104.084
-102.15
-101.023
-100.367
-100.051
-100.023
-99.994
-99.51
-98.269
-96.161
-93.259
-89.748
-85.738
-81.26
-76.358
-71.13
-65.676
-60.094
-54.469
-48.82
-43.15
-37.472
-31.793
-26.119
-20.454
-14.776
-9.042
-3.222
2.702
8.742
14.894
21.16
27.557
34.097
40.792
47.645
54.654
61.814
69.123
76.574
84.155
91.844
99.614
107.439
115.294
123.156
131.001
138.802
146.53
154.156
161.65
168.982
176.118
183.023
189.664
196.003
202.009
207.648
212.889
217.702
222.057
225.928
229.288
232.116
234.387
236.083
237.186
237.68
237.555
236.801
235.411
233.382
230.717
227.419
223.495
218.958
213.822
208.104
201.826
195.011
187.686
179.879
171.621
162.947
153.891
144.49
134.784
124.811
114.613
104.23
93.704
83.076
72.386
61.675
50.984
40.351
29.814
19.41
9.175
-0.856
-10.652
-20.182
-29.418
-38.335
-46.909
-55.121
-62.953
-70.389
-77.42
-84.035
-90.228
-95.997
-101.341
-106.26
-110.759
-114.845
-118.525
-121.81
-124.713
-127.247
-129.429
-131.274
-132.802
-134.032
-134.983
-135.677
-136.134
-136.378
-136.431
-136.315
-136.055
-135.673
-135.192
-134.635
-134.025
-133.383
-132.73
-132.084
-131.465
-130.889
-130.373
-129.93
-129.572
-129.311
-129.156
-129.116
-129.197
-129.405
-129.742
-130.211
-130.812
-131.544
-132.405
-133.389
-134.491
-135.705
-137.021
-138.433
-139.929
-141.499
-143.13
-144.808
-146.522
-148.257
-149.999
-151.733
-153.443
-155.114
-156.734
-158.289
-159.767
-161.157
-162.447
-163.631
-164.705
-165.663
-166.503
-167.222
-167.816
-168.284
-168.627
-168.847
-168.946
-168.929
-168.802
-168.573
-168.255
-167.861
-167.404
-166.895
-166.344
-165.762
-165.158
-164.537
-163.909
-163.288
-162.689
-162.135
-161.64
-161.21
-160.853
-160.577
-160.38
-160.249
-160.162
-160.076
-159.965
-159.814
-159.615
-159.372
-159.072
-158.676
-158.153
-157.48
-156.663
-155.737
-154.715
-153.553
-152.231
-150.799
-149.369
-148.146
-147.258
-146.668
-146.412
-146.681
-147.831
-150.281
-154.223
-159.446
-165.712
-173.099
-181.566
-190.759
-199.722
-206.923
-211.251
-212.517
-210.889
-206.168
-198.25
-187.509
-175.474
-164.931
-158.165
-156.291
-159.666
-168.767
-184.289
-204.634
-225.168
-240.546
-244.906
-237.434
-223.113
-201.459
-169.924
-121.235
-40.55
75.408
223.485
397.024
578.761
755.845
913.923
1032.09
1091.482
1073.705
971.065
790.763
553.014
288.127
25.941
-205.68
-387.942
-514.613
-587.156
-615.042
-607.69
-570.79
-509.969
-433.267
-354.096
-286.398
-238.947
-211.003
-192.886
-176.164
-157.591
-139.272
-128.066
-127.73
-136.634
-151.256
-166.319
-177.379
-183.24
-183.977
-180.112
-172.796
-163.155
-151.999
-140.569
-130.415
-122.3
-116.538
-113.157
-111.636
-111.413
-112.03
-112.882
-113.349
-113.102
-111.985
-109.959
-107.148
-103.635
-99.484
-94.795
-89.659
-84.14
-78.271
-72.091
-65.634
-58.971
-52.206
-45.413
-38.64
-31.915
-25.249
-18.642
-12.098
-5.607
0.867
7.343
13.829
20.331
26.849
33.39
39.976
46.627
53.362
60.197
67.141
74.2
81.376
88.667
96.061
103.545
111.099
118.707
126.356
134.031
141.717
149.395
157.047
164.652
172.189
179.635
186.963
194.146
201.155
207.962
214.54
220.862
226.9
232.627
238.015
243.04
247.676
251.9
255.689
259.02
261.875
264.234
266.083
267.409
268.2
268.448
268.148
267.299
265.901
263.957
261.473
258.458
254.924
250.884
246.356
241.357
235.91
230.038
223.766
217.124
210.141
202.848
195.277
187.462
179.438
171.239
162.901
154.458
145.947
137.403
128.86
120.353
111.915
103.579
95.374
87.331
79.476
71.834
64.43
57.284
50.415
43.839
37.571
31.622
26.003
20.721
15.781
11.186
6.935
3.027
-0.541
-3.776
-6.685
-9.28
-11.57
-13.569
-15.292
-16.753
-17.97
-18.96
-19.744
-20.339
-20.768
-21.049
-21.206
-21.258
-21.228
-21.135
-20.999
-20.842
-20.68
-20.533
-20.416
-20.346
-20.337
-20.403
-20.557
-20.809
-21.168
-21.644
-22.241
-22.966
-23.82
-24.806
-25.923
-27.168
-28.538
-30.028
-31.633
-33.344
-35.153
-37.048
-39.02
-41.055
-43.141
-45.261
-47.4
-49.541
-51.668
-53.763
-55.81
-57.792
-59.691
-61.492
-63.179
-64.739
-66.158
-67.42
-68.513
-69.424
-70.145
-70.668
-70.985
-71.091
-70.984
-70.665
-70.139
-69.416
-68.5
-67.399
-66.121
-64.682
-63.099
-61.387
-59.563
-57.64
-55.637
-53.577
-51.486
-49.385
-47.292
-45.22
-43.186
-41.21
-39.313
-37.513
-35.819
-34.235
-32.769
-31.432
-30.244
-29.216
-28.349
-27.644
-27.101
-26.718
-26.498
-26.433
-26.492
-26.648
-26.869
-27.122
-27.388
-27.647
-27.881
-28.099
-28.296
-28.455
-28.557
-28.547
-28.38
-28.108
-27.765
-27.338
-26.933
-26.698
-26.886
-28.02
-30.535
-34.5
-39.898
-46.642
-54.355
-62.65
-70.861
-77.564
-81.422
-81.816
-78.489
-71.682
-62.146
-50.413
-37.461
-25.648
-17.403
-14.292
-17.492
-27.263
-43.145
-65.549
-92.905
-119.605
-140.325
-150.534
-149.179
-142.394
-134.006
-120.495
-93.366
-37.365
60.303
199.158
371.972
565.715
761.362
943.73
1095.076
1193.54
1221.693
1166.737
1027.453
814.782
551.01
267.321
-5.496
-234.258
-397.027
-493.09
-530.009
-528.916
-511.785
-482.004
-442.506
-395.363
-339.649
-287.128
-245.049
-210.094
-181.464
-154.098
-125.992
-103.482
-89.374
-84.247
-87.161
-94.194
-102.748
-111.429
-118.803
-123.723
-125.543
-124.299
-120.421
-114.353
-106.627
-97.835
-88.82
-80.79
-74.385
-69.628
-66.321
-63.997
-62.284
-60.975
-59.691
-57.936
-55.426
-52.051
-47.828
-42.957
-37.556
-31.661
-25.351
-18.702
-11.791
-4.708
2.479
9.719
16.97
24.203
31.397
38.528
45.592
52.594
59.552
66.508
73.489
80.503
87.561
94.659
101.807
109.023
116.324
123.721
131.222
138.828
146.541
154.366
162.297
170.32
178.417
186.563
194.736
202.918
211.089
219.226
227.307
235.304
243.192
250.945
258.535
265.928
273.094
279.998
286.607
292.892
298.82
304.363
309.491
314.176
318.392
322.114
325.321
327.989
330.101
331.639
332.589
332.941
332.686
331.819
330.337
328.242
325.538
322.234
318.34
313.871
308.843
303.276
297.193
290.621
283.585
276.116
268.245
260.007
251.436
242.57
233.445
224.101
214.575
204.906
195.133
185.294
175.428
165.569
155.756
146.022
136.402
126.927
117.627
108.532
99.666
91.055
82.719
74.677
66.946
59.541
52.471
45.746
39.372
33.353
27.69
22.383
17.428
12.82
8.552
4.617
1.003
-2.302
-5.309
-8.034
-10.492
-12.697
-14.668
-16.421
-17.974
-19.346
-20.555
-21.62
-22.559
-23.392
-24.136
-24.809
-25.429
-26.012
-26.573
-27.129
-27.693
-28.277
-28.895
-29.555
-30.269
-31.045
-31.89
-32.812
-33.814
-34.902
-36.078
-37.344
-38.703
-40.152
-41.691
-43.317
-45.029
-46.821
-48.69
-50.63
-52.634
-54.694
-56.802
-58.95
-61.127
-63.323
-65.525
-67.722
-69.902
-72.053
-74.164
-76.22
-78.21
-80.124
-81.948
-83.675
-85.292
-86.787
-88.152
-89.376
-90.454
-91.378
-92.142
-92.74
-93.171
-93.435
-93.535
-93.476
-93.26
-92.89
-92.372
-91.715
-90.927
-90.017
-88.993
-87.863
-86.64
-85.34
-83.98
-82.576
-81.14
-79.682
-78.212
-76.746
-75.293
-73.857
-72.45
-71.077
-69.752
-68.501
-67.339
-66.279
-65.334
-64.51
-63.803
-63.217
-62.734
-62.325
-61.972
-61.651
-61.346
-61.053
-60.735
-60.357
-59.899
-59.33
-58.649
-57.856
-56.897
-55.725
-54.356
-52.845
-51.32
-49.908
-48.606
-47.497
-46.832
-46.98
-48.373
-51.216
-55.384
-60.791
-67.545
-75.564
-84.391
-93
-99.987
-104.466
-106.279
-105.429
-101.769
-95.375
-87.061
-78.759
-73.027
-72.06
-77.087
-88.544
-107.185
-132.254
-160.063
-186.352
-206.001
-216.053
-218.744
-214.278
-198.318
-163.705
-98.836
4.273
143.206
311.533
498.389
689.179
872.225
1030.371
1141.835
1187.529
1150.697
1027.626
828.18
571.714
286.687
2.843
-250.204
-448.225
-578.169
-639.293
-642.984
-606.764
-549.179
-484.424
-423.846
-374.848
-338.009
-311.522
-288.321
-261.877
-232.754
-204.334
-182.839
-172.501
-172.23
-178.749
-188.024
-197.243
-204.692
-209.053
-209.918
-207.269
-201.539
-193.668
-184.366
-174.238
-164.332
-155.777
-149.237
-144.945
-142.689
-141.962
-142.31
-143.362
-144.641
-145.609
-145.929
-145.451
-144.153
-142.145
-139.525
-136.342
-132.668
-128.6
-124.198
-119.508
-114.581
-109.448
-104.174
-98.845
-93.515
-88.219
-82.979
-77.79
-72.645
-67.538
-62.433
-57.294
-52.094
-46.816
-41.448
-35.982
-30.399
-24.677
-18.798
-12.745
-6.506
-0.074
6.554
13.377
20.384
27.559
34.882
42.327
49.873
57.498
65.178
72.888
80.599
88.284
95.912
103.452
110.87
118.129
125.193
132.024
138.585
144.842
150.759
156.302
161.437
166.135
170.366
174.104
177.323
179.999
182.113
183.647
184.586
184.92
184.639
183.739
182.218
180.08
177.329
173.977
170.035
165.52
160.45
154.847
148.737
142.148
135.108
127.652
119.812
111.627
103.135
94.376
85.392
76.222
66.909
57.494
48.019
38.524
29.048
19.631
10.308
1.117
-7.908
-16.735
-25.333
-33.675
-41.735
-49.489
-56.917
-64.002
-70.729
-77.085
-83.061
-88.649
-93.846
-98.648
-103.057
-107.075
-110.708
-113.962
-116.848
-119.378
-121.564
-123.422
-124.968
-126.22
-127.196
-127.916
-128.398
-128.663
-128.732
-128.625
-128.364
-127.97
-127.463
-126.864
-126.193
-125.47
-124.711
-123.935
-123.159
-122.397
-121.664
-120.974
-120.339
-119.771
-119.279
-118.874
-118.564
-118.353
-118.248
-118.253
-118.368
-118.596
-118.935
-119.383
-119.937
-120.594
-121.348
-122.193
-123.123
-124.13
-125.204
-126.336
-127.516
-128.732
-129.971
-131.221
-132.469
-133.701
-134.905
-136.068
-137.176
-138.215
-139.172
-140.034
-140.789
-141.424
-141.924
-142.279
-142.478
-142.512
-142.372
-142.051
-141.543
-140.844
-139.957
-138.883
-137.624
-136.182
-134.563
-132.773
-130.824
-128.725
-126.484
-124.109
-121.608
-118.996
-116.293
-113.513
-110.67
-107.777
-104.845
-101.891
-98.938
-96
-93.086
-90.202
-87.355
-84.563
-81.863
-79.281
-76.837
-74.544
-72.41
-70.44
-68.65
-67.03
-65.551
-64.184
-62.891
-61.648
-60.449
-59.279
-58.128
-56.977
-55.785
-54.512
-53.107
-51.532
-49.781
-47.889
-45.94
-44.004
-42.101
-40.385
-39.156
-38.697
-39.312
-41.095
-43.801
-47.45
-52.425
-58.701
-65.907
-73.474
-80.349
-86.035
-90.881
-94.632
-96.419
-95.953
-93.401
-89.627
-86.595
-85.624
-87.157
-92.312
-102.601
-117.606
-134.893
-151.444
-164.332
-175.449
-189.79
-206.838
-218.153
-206.53
-153.126
-51.21
89.205
246.639
399.006
535.144
660.22
783.84
907.228
1019.544
1092.195
1095.202
1014.126
847.981
617.501
355.836
93.143
-140.527
-324.419
-450.157
-517.423
-534.469
-513.994
-470.21
-414.913
-360.174
-316.007
-284.218
-262.426
-242.516
-216.223
-183.383
-149.216
-121.597
-105.626
-101.003
-104.398
-111.547
-120.119
-128.742
-135.479
-139.312
-139.748
-136.671
-130.946
-123.355
-114.268
-104.568
-95.605
-88.25
-82.941
-79.724
-78.095
-77.553
-77.766
-78.251
-78.42
-77.915
-76.549
-74.254
-71.159
-67.378
-62.966
-58.021
-52.648
-46.904
-40.836
-34.488
-27.888
-21.101
-14.22
-7.305
-0.397
6.477
13.315
20.112
26.868
33.605
40.353
47.13
53.944
60.796
67.682
74.61
81.593
88.643
95.771
102.984
110.284
117.671
125.142
132.686
140.285
147.92
155.567
163.205
170.817
178.383
185.881
193.291
200.589
207.752
214.756
221.574
228.179
234.542
240.635
246.43
251.903
257.025
261.773
266.122
270.05
273.535
276.557
279.099
281.143
282.675
283.681
284.152
284.079
283.458
282.283
280.556
278.277
275.454
272.092
268.203
263.8
258.899
253.517
247.676
241.398
234.708
227.633
220.202
212.445
204.393
196.081
187.542
178.812
169.925
160.918
151.827
142.688
133.536
124.406
115.334
106.352
97.494
88.79
80.272
71.968
63.906
56.11
48.604
41.41
34.547
28.032
21.879
16.1
10.704
5.7
1.09
-3.122
-6.937
-10.357
-13.388
-16.035
-18.307
-20.215
-21.772
-22.991
-23.889
-24.484
-24.794
-24.839
-24.64
-24.22
-23.601
-22.806
-21.86
-20.786
-19.61
-18.357
-17.051
-15.716
-14.376
-13.055
-11.776
-10.56
-9.428
-8.399
-7.489
-6.714
-6.089
-5.627
-5.337
-5.227
-5.304
-5.574
-6.039
-6.701
-7.558
-8.607
-9.843
-11.261
-12.851
-14.605
-16.508
-18.549
-20.713
-22.983
-25.344
-27.777
-30.263
-32.782
-35.313
-37.836
-40.331
-42.776
-45.151
-47.435
-49.61
-51.658
-53.564
-55.311
-56.885
-58.275
-59.476
-60.481
-61.286
-61.89
-62.292
-62.495
-62.505
-62.326
-61.963
-61.419
-60.701
-59.82
-58.792
-57.633
-56.359
-54.986
-53.531
-52.016
-50.463
-48.885
-47.291
-45.692
-44.1
-42.536
-41.039
-39.637
-38.347
-37.19
-36.179
-35.318
-34.613
-34.043
-33.566
-33.148
-32.758
-32.377
-32.015
-31.659
-31.283
-30.858
-30.328
-29.654
-28.83
-27.824
-26.613
-25.231
-23.729
-22.211
-20.855
-19.767
-19.034
-18.766
-19.023
-19.917
-21.59
-24.104
-27.563
-32.13
-37.86
-44.752
-52.648
-60.967
-68.985
-76.043
-81.363
-84.211
-84.118
-80.839
-74.806
-67.406
-60.461
-55.664
-54.347
-57.677
-66.523
-80.932
-99.672
-118.609
-131.052
-131.173
-115.236
-83.674
-40.722
11.447
74.683
155.901
265.189
407.825
579.515
764.42
935.659
1063.916
1126.063
1109.487
1018.298
866.608
670.803
449.574
215.15
-18.681
-231.926
-407.739
-527.51
-583.377
-584.003
-542.146
-479.852
-416.926
-362.096
-322.241
-293.276
-265.816
-236.396
-201.322
-163.851
-132.765
-111.067
-99.83
-97.514
-99.11
-102.349
-106.377
-109.468
-110.643
-109.474
-105.756
-100.146
-93.673
-86.876
-80.165
-74.39
-70.497
-68.913
-69.617
-72.208
-76.007
-80.528
-85.482
-90.438
-94.888
-98.494
-101.032
-102.386
-102.573
-101.586
-99.385
-96.022
-91.614
-86.314
-80.333
-73.857
-67.029
-59.995
-52.854
-45.666
-38.481
-31.319
-24.185
-17.105
-10.115
-3.233
3.513
10.115
16.588
22.967
29.314
35.7
42.183
48.809
55.606
62.585
69.749
77.086
84.57
92.177
99.888
107.685
115.558
123.492
131.466
139.455
147.427
155.35
163.187
170.907
178.473
185.852
193.015
199.934
206.585
212.944
218.987
224.686
230.014
234.943
239.448
243.502
247.079
250.157
252.713
254.731
256.196
257.097
257.424
257.17
256.333
254.912
252.91
250.332
247.186
243.484
239.239
234.467
229.189
223.427
217.205
210.549
203.489
196.056
188.283
180.205
171.857
163.274
154.496
145.559
136.504
127.368
118.192
109.013
99.872
90.806
81.851
73.043
64.414
55.996
47.818
39.907
32.287
24.98
18.007
11.383
5.123
-0.76
-6.26
-11.369
-16.083
-20.403
-24.33
-27.868
-31.023
-33.804
-36.221
-38.288
-40.018
-41.429
-42.538
-43.366
-43.933
-44.263
-44.379
-44.305
-44.066
-43.688
-43.194
-42.613
-41.968
-41.285
-40.589
-39.904
-39.254
-38.662
-38.149
-37.735
-37.441
-37.282
-37.276
-37.438
-37.781
-38.316
-39.054
-40.004
-41.174
-42.569
-44.193
-46.048
-48.136
-50.455
-53.002
-55.772
-58.76
-61.956
-65.352
-68.936
-72.698
-76.626
-80.704
-84.917
-89.25
-93.684
-98.203
-102.789
-107.419
-112.076
-116.737
-121.382
-125.993
-130.548
-135.026
-139.406
-143.668
-147.794
-151.765
-155.563
-159.17
-162.568
-165.744
-168.684
-171.377
-173.813
-175.982
-177.88
-179.503
-180.853
-181.931
-182.74
-183.284
-183.568
-183.603
-183.397
-182.958
-182.296
-181.419
-180.342
-179.082
-177.657
-176.085
-174.385
-172.577
-170.682
-168.727
-166.73
-164.701
-162.655
-160.606
-158.578
-156.607
-154.719
-152.927
-151.248
-149.698
-148.284
-147.011
-145.859
-144.785
-143.751
-142.729
-141.702
-140.675
-139.631
-138.539
-137.359
-136.044
-134.574
-132.954
-131.174
-129.202
-127.057
-124.804
-122.573
-120.561
-118.903
-117.665
-116.921
-116.748
-117.255
-118.57
-120.786
-123.923
-128.04
-133.282
-139.716
-147.347
-155.958
-164.947
-173.617
-181.329
-187.32
-190.748
-191.138
-188.202
-182.041
-173.866
-165.247
-157.705
-153.43
-153.624
-156.977
-161.632
-165.237
-167.139
-171.416
-181.883
-197.715
-209.966
-201.267
-152.934
-53.547
95.197
281.286
484.973
685.521
865.924
1007.209
1094.112
1114.101
1057.574
927.827
734.164
492.97
228.015
-36.933
-275.894
-466.952
-596.52
-662.647
-673.902
-641.957
-583.263
-509.897
-432.961
-367.785
-319.315
-289.171
-273.405
-258.155
-238.702
-215.782
-192.132
-176.417
-171.48
-174.9
-184.346
-195.412
-204.618
-210.786
-213.255
-212.073
-207.89
-201.334
-192.896
-183.238
-173.459
-164.734
-157.776
-152.822
-149.658
-147.788
-146.764
-146.247
-145.786
-144.867
-143.188
-140.613
-137.14
-132.917
-128.078
-122.678
-116.801
-110.541
-103.95
-97.101
-90.063
-82.88
-75.635
-68.395
-61.193
-54.067
-47.032
-40.084
-33.222
-26.428
-19.66
-12.895
-6.122
0.668
7.478
14.317
21.209
28.174
35.227
42.383
49.648
57.034
64.544
72.177
79.923
87.768
95.693
103.681
111.721
119.796
127.892
135.988
144.064
152.098
160.07
167.952
175.717
183.333
190.769
197.993
204.974
211.682
218.084
224.15
229.849
235.152
240.032
244.461
248.413
251.864
254.792
257.176
258.999
260.245
260.901
260.957
260.408
259.248
257.48
255.104
252.128
248.558
244.408
239.691
234.425
228.631
222.33
215.547
208.312
200.654
192.606
184.203
175.479
166.473
157.221
147.763
138.137
128.383
118.539
108.644
98.736
88.854
79.034
69.312
59.722
50.297
41.068
32.064
23.311
14.833
6.653
-1.211
-8.74
-15.92
-22.738
-29.184
-35.25
-40.931
-46.225
-51.129
-55.646
-59.778
-63.533
-66.916
-69.936
-72.605
-74.934
-76.937
-78.627
-80.021
-81.134
-81.986
-82.593
-82.976
-83.153
-83.143
-82.968
-82.646
-82.198
-81.643
-80.999
-80.287
-79.524
-78.728
-77.916
-77.104
-76.307
-75.539
-74.815
-74.146
-73.544
-73.019
-72.58
-72.235
-71.992
-71.858
-71.837
-71.934
-72.152
-72.493
-72.959
-73.549
-74.261
-75.093
-76.039
-77.096
-78.258
-79.518
-80.869
-82.3
-83.803
-85.366
-86.98
-88.631
-90.306
-91.99
-93.671
-95.335
-96.967
-98.552
-100.077
-101.526
-102.888
-104.148
-105.294
-106.315
-107.196
-107.928
-108.5
-108.905
-109.133
-109.179
-109.036
-108.701
-108.177
-107.467
-106.573
-105.501
-104.257
-102.851
-101.293
-99.594
-97.761
-95.804
