Name,Aleksandre Beruashvili
Date of Birth,"Dec 20, 1998"
Recorded Date,2024-06-03 13:38:11 +0400
Classification,Sinus Rhythm
Symptoms,
Software Version,1.90
Device,"Watch7,2"
Sample Rate,512 hertz


Lead,Lead I
Unit,µV

-43.609
-25.085
-7.462
8.932
24.167
38.216
51.034
62.477
72.272
80.355
86.871
91.845
95.18
96.809
96.677
94.819
91.378
86.502
80.315
72.997
64.813
56.008
46.828
37.52
28.254
19.162
10.364
1.922
-6.135
-13.775
-20.989
-27.784
-34.151
-40.115
-45.716
-51.001
-56.048
-60.921
-65.671
-70.354
-75.008
-79.646
-84.278
-88.888
-93.439
-97.904
-102.246
-106.423
-110.406
-114.155
-117.625
-120.774
-123.552
-125.918
-127.848
-129.318
-130.316
-130.837
-130.881
-130.458
-129.588
-128.291
-126.586
-124.496
-122.04
-119.241
-116.128
-112.728
-109.071
-105.186
-101.099
-96.835
-92.42
-87.878
-83.233
-78.506
-73.715
-68.882
-64.029
-59.176
-54.345
-49.557
-44.83
-40.183
-35.632
-31.192
-26.878
-22.702
-18.673
-14.802
-11.096
-7.562
-4.208
-1.037
1.948
4.744
7.35
9.767
11.996
14.04
15.9
17.583
19.091
20.43
21.605
22.624
23.492
24.218
24.808
25.27
25.614
25.848
25.979
26.018
25.972
25.85
25.661
25.413
25.113
24.77
24.39
23.982
23.55
23.103
22.646
22.186
21.728
21.277
20.84
20.421
20.024
19.654
19.315
19.01
18.743
18.516
18.333
18.195
18.105
18.065
18.076
18.141
18.258
18.431
18.658
18.94
19.277
19.669
20.114
20.612
21.162
21.762
22.41
23.105
23.843
24.623
25.441
26.293
27.175
28.083
29.013
29.959
30.918
31.885
32.854
33.82
34.778
35.723
36.65
37.552
38.425
39.264
40.063
40.817
41.522
42.173
42.767
43.3
43.769
44.171
44.505
44.769
44.96
45.079
45.125
45.099
45.003
44.839
44.61
44.318
43.97
43.569
43.121
42.63
42.103
41.546
40.966
40.369
39.762
39.152
38.544
37.948
37.369
36.813
36.285
35.792
35.337
34.925
34.557
34.234
33.956
33.72
33.525
33.368
33.243
33.146
33.07
33.011
32.965
32.924
32.882
32.828
32.75
32.638
32.48
32.267
31.986
31.626
31.178
30.639
30.006
29.273
28.43
27.456
26.332
25.048
23.594
21.964
20.16
18.185
16.054
13.8
11.456
9.051
6.612
4.144
1.66
-0.812
-3.241
-5.577
-7.771
-9.801
-11.637
-13.255
-14.671
-15.914
-17.051
-18.199
-19.448
-20.876
-22.587
-24.649
-27.144
-30.164
-33.752
-37.997
-43.078
-49.08
-55.993
-63.696
-71.816
-79.921
-87.666
-94.538
-99.883
-103.248
-104.425
-103.649
-101.723
-99.652
-98.365
-98.776
-102.045
-108.344
-116.167
-123.515
-127.757
-127.88
-126.588
-125.615
-123.11
-113.381
-84.992
-27.601
60.452
174.569
303.384
431.15
547.887
646.009
717.596
759.866
767.135
733.031
658.313
543.484
394.322
224.59
48.031
-117.669
-255.091
-355.424
-416.836
-445.793
-454.714
-452.574
-442.16
-421.652
-385.895
-334.732
-275.424
-217.206
-170.623
-140.03
-121.913
-112.08
-104.972
-98.29
-94.359
-94.033
-97.487
-103.427
-108.542
-110.883
-110.093
-106.543
-101.257
-95.139
-88.745
-82.758
-78.027
-75.313
-74.895
-76.62
-80.074
-84.663
-89.942
-95.575
-101.135
-106.217
-110.536
-113.88
-116.175
-117.474
-117.793
-117.15
-115.584
-113.13
-109.876
-105.956
-101.517
-96.725
-91.698
-86.5
-81.192
-75.82
-70.428
-65.076
-59.782
-54.531
-49.316
-44.135
-38.99
-33.889
-28.808
-23.692
-18.479
-13.102
-7.515
-1.695
4.377
10.718
17.335
24.228
31.384
38.773
46.374
54.172
62.152
70.3
78.592
86.996
95.477
104.001
112.533
121.039
129.481
137.822
146.025
154.056
161.884
169.478
176.804
183.826
190.509
196.819
202.719
208.176
213.157
217.63
221.565
224.938
227.723
229.903
231.458
232.374
232.641
232.25
231.197
229.481
227.102
224.068
220.387
216.07
211.135
205.601
199.488
192.824
185.637
177.958
169.82
161.26
152.313
143.02
133.422
123.561
113.481
103.226
92.84
82.368
71.857
61.351
50.892
40.525
30.29
20.226
10.371
0.761
-8.57
-17.591
-26.274
-34.592
-42.523
-50.046
-57.142
-63.799
-70.004
-75.749
-81.028
-85.838
-90.181
-94.059
-97.477
-100.445
-102.971
-105.071
-106.758
-108.05
-108.966
-109.528
-109.758
-109.679
-109.316
-108.694
-107.841
-106.782
-105.545
-104.157
-102.644
-101.033
-99.35
-97.621
-95.871
-94.122
-92.397
-90.717
-89.102
-87.57
-86.136
-84.817
-83.625
-82.572
-81.667
-80.918
-80.331
-79.912
-79.661
-79.581
-79.671
-79.927
-80.347
-80.923
-81.651
-82.521
-83.525
-84.651
-85.889
-87.226
-88.649
-90.145
-91.699
-93.296
-94.922
-96.562
-98.2
-99.822
-101.413
-102.96
-104.447
-105.864
-107.196
-108.434
-109.566
-110.582
-111.474
-112.234
-112.854
-113.331
-113.658
-113.833
-113.854
-113.718
-113.427
-112.981
-112.382
-111.633
-110.739
-109.704
-108.534
-107.236
-105.817
-104.286
-102.651
-100.923
-99.11
-97.224
-95.275
-93.274
-91.232
-89.159
-87.068
-84.968
-82.87
-80.785
-78.721
-76.689
-74.697
-72.753
-70.865
-69.04
-67.285
-65.605
-64.005
-62.489
-61.062
-59.727
-58.486
-57.341
-56.293
-55.343
-54.492
-53.74
-53.084
-52.525
-52.06
-51.687
-51.405
-51.209
-51.097
-51.066
-51.111
-51.229
-51.415
-51.666
-51.977
-52.343
-52.761
-53.227
-53.736
-54.284
-54.868
-55.484
-56.129
-56.797
-57.487
-58.195
-58.915
-59.645
-60.38
-61.117
-61.85
-62.576
-63.29
-63.987
-64.662
-65.309
-65.922
-66.495
-67.022
-67.496
-67.909
-68.255
-68.528
-68.72
-68.824
-68.834
-68.743
-68.545
-68.232
-67.8
-67.239
-66.545
-65.712
-64.734
-63.608
-62.329
-60.894
-59.304
-57.559
-55.662
-53.616
-51.424
-49.091
-46.623
-44.03
-41.321
-38.504
-35.59
-32.592
-29.52
-26.392
-23.225
-20.03
-16.821
-13.608
-10.404
-7.224
-4.085
-0.991
2.048
5.026
7.93
10.742
13.442
16.025
18.483
20.808
22.997
25.042
26.941
28.712
30.369
31.928
33.412
34.821
36.162
37.443
38.668
39.858
41.039
42.218
43.412
44.647
45.916
47.21
48.528
49.78
50.821
51.458
51.413
50.434
48.364
45.112
40.601
34.91
28.324
21.326
14.659
9.128
5.37
3.772
4.595
7.828
13.004
19.357
25.69
30.467
32.198
29.715
22.133
8.891
-9.185
-29.889
-50.722
-68.494
-81.638
-92.149
-100.731
-105.04
-99.25
-71.114
-10.428
83.278
203.393
335.192
463.533
582.421
690.023
786.658
868.609
924.265
941.629
910.131
828.468
704.08
544.748
363.734
174.902
-7.768
-163.724
-277.054
-341.654
-358.339
-338.334
-297.974
-247.93
-198.044
-157.287
-126.501
-106.437
-94.187
-80.733
-63.681
-43.592
-22.592
-6.955
1.401
4.116
2.571
-0.405
-2.788
-4.092
-3.521
-0.726
3.894
9.923
16.966
24.438
31.725
38.2
43.064
45.897
46.82
46.141
44.279
41.669
38.61
35.432
32.55
30.211
28.525
27.548
27.241
27.607
28.697
30.508
32.996
36.099
39.706
43.688
47.94
52.344
56.815
61.303
65.766
70.19
74.575
78.928
83.256
87.558
91.823
96.04
100.212
104.357
108.515
112.742
117.088
121.6
126.314
131.253
136.433
141.859
147.521
153.403
159.487
165.76
172.211
178.832
185.61
192.526
199.557
206.674
213.848
221.046
228.234
235.377
242.439
249.385
256.185
262.807
269.219
275.388
281.279
286.858
292.087
296.934
301.362
305.337
308.828
311.803
314.236
316.103
317.38
318.048
318.091
317.496
316.253
314.354
311.796
308.578
304.704
300.179
295.014
289.222
282.818
275.822
268.257
260.149
251.524
242.415
232.854
222.876
212.517
201.815
190.809
179.542
168.054
156.388
144.588
132.698
120.761
108.82
96.918
85.096
73.394
61.851
50.503
39.385
28.529
17.967
7.726
-2.167
-11.69
-20.821
-29.543
-37.84
-45.7
-53.112
-60.071
-66.569
-72.606
-78.18
-83.295
-87.954
-92.163
-95.931
-99.269
-102.187
-104.7
-106.823
-108.573
-109.967
-111.025
-111.767
-112.214
-112.386
-112.306
-111.995
-111.476
-110.77
-109.899
-108.884
-107.747
-106.507
-105.184
-103.797
-102.363
-100.899
-99.422
-97.944
-96.482
-95.046
-93.65
-92.305
-91.02
-89.804
-88.666
-87.613
-86.651
-85.786
-85.022
-84.363
-83.811
-83.369
-83.037
-82.816
-82.706
-82.706
-82.813
-83.027
-83.343
-83.759
-84.271
-84.874
-85.566
-86.341
-87.195
-88.123
-89.12
-90.183
-91.305
-92.483
-93.711
-94.985
-96.3
-97.651
-99.033
-100.441
-101.87
-103.314
-104.769
-106.229
-107.689
-109.145
-110.592
-112.024
-113.436
-114.824
-116.183
-117.508
-118.795
-120.04
-121.239
-122.388
-123.484
-124.523
-125.502
-126.419
-127.27
-128.053
-128.765
-129.404
-129.968
-130.454
-130.861
-131.188
-131.433
-131.595
-131.675
-131.67
-131.583
-131.412
-131.159
-130.824
-130.409
-129.915
-129.344
-128.698
-127.98
-127.193
-126.341
-125.426
-124.454
-123.427
-122.351
-121.229
-120.065
-118.864
-117.631
-116.371
-115.089
-113.789
-112.477
-111.158
-109.838
-108.523
-107.216
-105.923
-104.65
-103.4
-102.179
-100.991
-99.84
-98.73
-97.666
-96.65
-95.688
-94.78
-93.931
-93.141
-92.412
-91.744
-91.138
-90.594
-90.108
-89.681
-89.31
-88.992
-88.724
-88.504
-88.326
-88.186
-88.078
-87.997
-87.936
-87.889
-87.846
-87.8
-87.745
-87.671
-87.571
-87.436
-87.258
-87.029
-86.741
-86.387
-85.957
-85.444
-84.841
-84.14
-83.337
-82.426
-81.405
-80.268
-79.017
-77.655
-76.183
-74.606
-72.93
-71.157
-69.296
-67.354
-65.343
-63.27
-61.144
-58.977
-56.778
-54.566
-52.355
-50.159
-47.992
-45.862
-43.782
-41.768
-39.832
-37.982
-36.228
-34.575
-33.033
-31.623
-30.364
-29.265
-28.333
-27.572
-26.981
-26.561
-26.304
-26.187
-26.184
-26.271
-26.423
-26.621
-26.853
-27.093
-27.321
-27.523
-27.672
-27.748
-27.732
-27.578
-27.285
-26.911
-26.505
-26.119
-25.859
-25.837
-26.284
-27.56
-29.871
-33.235
-37.637
-43.043
-49.369
-56.495
-63.912
-70.664
-76.064
-79.79
-81.721
-81.944
-80.486
-77.349
-73.262
-69.802
-68.271
-69.641
-74.504
-82.801
-94.775
-110.135
-126.38
-139.91
-147.282
-146.905
-141.32
-133.499
-122.579
-103.338
-64.992
2.843
102.062
227.709
368.139
507.369
635.072
743.363
823.578
871.541
880.024
841.825
757.941
630.008
465.589
280.296
89.987
-85.635
-227.698
-326.897
-383.265
-404.303
-402.376
-387.486
-361.554
-325.959
-283.098
-235.147
-190.278
-153.236
-122.561
-98
-76.392
-56.407
-41.411
-32.407
-29.289
-31.233
-35.373
-39.525
-42.746
-44.281
-43.728
-41.273
-37.342
-32.406
-27.068
-21.968
-17.492
-14.069
-12.199
-11.891
-12.906
-14.957
-17.608
-20.531
-23.538
-26.345
-28.623
-30.175
-30.859
-30.636
-29.576
-27.706
-25.064
-21.731
-17.819
-13.489
-8.891
-4.131
0.717
5.612
10.533
15.452
20.347
25.21
30.019
34.771
39.475
44.124
48.727
53.311
57.907
62.579
67.39
72.384
77.592
83.038
88.727
94.668
100.864
107.298
113.963
120.845
127.931
135.214
142.681
150.314
158.087
165.973
173.938
181.951
189.981
197.992
205.953
213.83
221.588
229.197
236.627
243.843
250.808
257.488
263.843
269.84
275.442
280.614
285.322
289.535
293.222
296.359
298.92
300.883
302.231
302.945
303.015
302.431
301.186
299.278
296.706
293.476
289.595
285.074
279.929
274.178
267.841
260.944
253.513
245.58
237.178
228.339
219.102
209.503
199.585
189.387
178.952
168.324
157.545
146.661
135.714
124.749
113.807
102.931
92.159
81.532
71.087
60.857
50.877
41.178
31.787
22.731
14.034
5.715
-2.208
-9.719
-16.807
-23.463
-29.68
-35.455
-40.787
-45.678
-50.132
-54.155
-57.757
-60.947
-63.738
-66.144
-68.182
-69.867
-71.218
-72.255
-72.997
-73.465
-73.68
-73.664
-73.438
-73.025
-72.445
-71.72
-70.87
-69.917
-68.88
-67.778
-66.628
-65.448
-64.253
-63.058
-61.876
-60.72
-59.6
-58.526
-57.506
-56.546
-55.653
-54.831
-54.083
-53.412
-52.819
-52.304
-51.867
-51.507
-51.223
-51.012
-50.872
-50.798
-50.787
-50.836
-50.939
-51.091
-51.289
-51.527
-51.799
-52.1
-52.426
-52.771
-53.129
-53.496
-53.867
-54.237
-54.601
-54.956
-55.298
-55.624
-55.93
-56.215
-56.477
-56.713
-56.924
-57.107
-57.262
-57.389
-57.488
-57.558
-57.6
-57.614
-57.602
-57.562
-57.497
-57.408
-57.295
-57.16
-57.003
-56.826
-56.63
-56.417
-56.187
-55.942
-55.685
-55.416
-55.139
-54.855
-54.566
-54.276
-53.986
-53.698
-53.414
-53.136
-52.865
-52.603
-52.352
-52.113
-51.888
-51.679
-51.485
-51.31
-51.154
-51.017
-50.902
-50.808
-50.736
-50.688
-50.663
-50.664
-50.692
-50.749
-50.836
-50.957
-51.113
-51.306
-51.538
-51.809
-52.122
-52.476
-52.872
-53.312
-53.796
-54.324
-54.897
-55.517
-56.185
-56.901
-57.666
-58.481
-59.345
-60.259
-61.224
-62.239
-63.306
-64.424
-65.594
-66.817
-68.094
-69.423
-70.805
-72.235
-73.712
-75.232
-76.788
-78.374
-79.982
-81.607
-83.241
-84.879
-86.515
-88.144
-89.761
-91.364
-92.948
-94.508
-96.035
-97.519
-98.951
-100.319
-101.611
-102.815
-103.918
-104.908
-105.776
-106.518
-107.124
-107.584
-107.885
-108.007
-107.94
-107.68
-107.231
-106.596
-105.789
-104.826
-103.744
-102.592
-101.416
-100.245
-99.093
-97.961
-96.856
-95.784
-94.751
-93.76
-92.792
-91.824
-90.842
-89.835
-88.784
-87.648
-86.353
-84.788
-82.868
-80.55
-77.829
-74.719
-71.22
-67.339
-63.121
-58.659
-54.098
-49.559
-45.108
-40.763
-36.57
-32.661
-29.178
-26.235
-23.822
-21.851
-20.3
-19.295
-19.01
-19.464
-20.669
-22.668
-25.618
-29.893
-35.709
-42.938
-51.293
-60.529
-70.297
-80.229
-89.855
-98.349
-105.119
-109.922
-112.606
-113.278
-112.234
-109.662
-105.834
-101.314
-96.519
-91.929
-88.163
-85.266
-83.104
-81.84
-81.71
-83.025
-86.23
-91.316
-98.013
-106.895
-117.649
-128.294
-136.87
-140.858
-140.718
-141.071
-143.298
-144.751
-135.897
-101.108
-32.783
67.817
189.989
315.768
435.064
543.449
640.379
726.616
793.693
830.574
826.086
771.932
670.144
525.917
350.298
160.683
-25.827
-187.938
-309.473
-385.81
-418.803
-420.172
-402.732
-374.149
-341.066
-305.612
-269.185
-233.707
-198.152
-162.595
-127.465
-94.501
-68.217
-51.191
-44.164
-45.902
-53.069
-63.433
-75.313
-87.023
-97.365
-104.959
-108.969
-109.565
-107.23
-102.52
-96.18
-88.934
-81.641
-75.297
-70.379
-66.898
-64.655
-63.278
-62.448
-61.931
-61.405
-60.5
-59.033
-56.952
-54.31
-51.255
-47.874
-44.208
-40.313
-36.247
-32.06
-27.801
-23.501
-19.178
-14.847
-10.517
-6.193
-1.878
2.436
6.766
11.138
15.586
20.133
24.793
29.582
34.509
39.591
44.848
50.3
55.963
61.852
67.977
74.35
80.978
87.864
95.003
102.388
110.005
117.843
125.891
134.133
142.553
151.131
159.843
168.665
177.57
186.526
195.501
204.457
213.358
222.164
230.837
239.337
247.623
255.655
263.391
270.792
277.818
284.43
290.588
296.258
301.402
305.99
309.991
313.376
316.122
318.206
319.611
320.321
320.326
319.619
318.195
316.056
313.205
309.651
305.406
300.486
294.911
288.705
281.895
274.511
266.586
258.156
249.26
239.937
230.231
220.184
209.843
199.253
188.462
177.516
166.463
155.35
144.223
133.128
122.109
111.208
100.467
89.922
79.613
69.571
59.83
50.417
41.36
32.68
24.398
16.53
9.09
2.087
-4.471
-10.58
-16.239
-21.451
-26.219
-30.55
-34.454
-37.943
-41.029
-43.73
-46.062
-48.044
-49.697
-51.041
-52.1
-52.895
-53.449
-53.786
-53.929
-53.9
-53.722
-53.418
-53.008
-52.514
-51.956
-51.352
-50.72
-50.076
-49.435
-48.811
-48.216
-47.659
-47.15
-46.697
-46.305
-45.98
-45.724
-45.541
-45.431
-45.394
-45.429
-45.534
-45.705
-45.94
-46.232
-46.578
-46.971
-47.407
-47.88
-48.383
-48.912
-49.459
-50.02
-50.588
-51.158
-51.724
-52.282
-52.826
-53.352
-53.857
-54.338
-54.791
-55.214
-55.606
-55.965
-56.292
-56.584
-56.843
-57.069
-57.263
-57.425
-57.558
-57.664
-57.745
-57.803
-57.842
-57.863
-57.871
-57.867
-57.853
-57.833
-57.809
-57.783
-57.756
-57.732
-57.71
-57.695
-57.686
-57.685
-57.694
-57.713
-57.743
-57.784
-57.837
-57.902
-57.98
-58.069
-58.17
-58.283
-58.409
-58.547
-58.697
-58.858
-59.032
-59.216
-59.413
-59.62
-59.837
-60.065
-60.303
-60.552
-60.811
-61.081
-61.363
-61.655
-61.959
-62.276
-62.605
-62.947
-63.302
-63.67
-64.052
-64.447
-64.856
-65.276
-65.709
-66.151
-66.602
-67.061
-67.524
-67.99
-68.454
-68.915
-69.367
-69.808
-70.231
-70.633
-71.008
-71.35
-71.655
-71.916
-72.129
-72.287
-72.383
-72.413
-72.372
-72.254
-72.054
-71.766
-71.386
-70.909
-70.334
-69.657
-68.877
-67.992
-67.005
-65.918
-64.737
-63.467
-62.113
-60.683
-59.183
-57.626
-56.02
-54.376
-52.704
-51.014
-49.319
-47.636
-45.98
-44.365
-42.803
-41.306
-39.885
-38.554
-37.325
-36.204
-35.198
-34.312
-33.556
-32.948
-32.504
-32.23
-32.133
-32.215
-32.471
-32.899
-33.487
-34.209
-35.04
-35.953
-36.923
-37.933
-38.966
-39.999
-41.016
-41.998
-42.916
-43.748
-44.463
-45.022
-45.43
-45.738
-45.992
-46.238
-46.566
-47.084
-48.007
-49.651
-52.19
-55.621
-59.918
-65.073
-71.023
-77.661
-84.529
-90.727
-95.597
-98.839
-100.31
-99.996
-97.871
-93.922
-88.829
-84.14
-81.152
-80.871
-84.009
-90.745
-101.478
-115.59
-130.415
-142.79
-149.527
-150.387
-148.447
-143.799
-133.674
-109.842
-60.097
19.009
123.953
244.095
363.569
474.753
574.313
660.439
730.689
775.185
783.333
747.651
668.055
552.189
409.096
249.814
83.363
-79.944
-225.704
-342.604
-421.297
-460.267
-466.094
-445.306
-407.094
-358.186
-304.017
-253.437
-210.833
-178.334
-154.667
-133.091
-110.747
-87.747
-66.094
-50.749
-43.273
-42.411
-46.438
-52.147
-57.445
-61.548
-63.563
-63.384
-61.388
-57.85
-53.249
-48.274
-43.522
-39.622
-37.242
-36.559
-37.335
-39.237
-41.865
-44.873
-48.01
-50.954
-53.293
-54.754
-55.235
-54.73
-53.324
-51.077
-47.995
-44.135
-39.619
-34.605
-29.274
-23.767
-18.15
-12.46
-6.735
-1.015
4.65
10.221
15.699
21.103
26.442
31.717
36.922
42.063
47.176
52.324
57.573
62.972
68.549
74.327
80.325
86.571
93.084
99.859
106.869
114.084
121.466
128.99
136.63
144.342
152.088
159.833
167.554
175.256
182.944
190.602
198.207
205.713
213.079
220.293
227.349
234.24
240.982
247.582
254.054
260.446
266.775
273.018
279.127
285.001
290.518
295.598
300.177
304.209
307.664
310.486
312.62
314.026
314.642
314.408
313.251
311.056
307.743
303.3
297.754
291.197
283.765
275.555
266.65
257.137
247.077
236.549
225.632
214.379
202.858
191.151
179.359
167.623
156.068
144.762
133.747
123.02
112.539
102.294
92.282
82.489
72.922
63.591
54.505
45.7
37.21
29.051
21.224
13.709
6.482
-0.456
-7.091
-13.4
-19.342
-24.895
-30.038
-34.746
-39.009
-42.823
-46.193
-49.139
-51.688
-53.861
-55.675
-57.143
-58.277
-59.097
-59.623
-59.881
-59.896
-59.695
-59.304
-58.753
-58.071
-57.282
-56.409
-55.469
-54.479
-53.456
-52.416
-51.375
-50.347
-49.349
-48.392
-47.492
-46.66
-45.906
-45.24
-44.667
-44.193
-43.82
-43.552
-43.39
-43.332
-43.379
-43.528
-43.777
-44.121
-44.558
-45.081
-45.685
-46.364
-47.111
-47.92
-48.782
-49.692
-50.64
-51.621
-52.625
-53.645
-54.675
-55.707
-56.735
-57.751
-58.749
-59.723
-60.668
-61.577
-62.446
-63.272
-64.05
-64.777
-65.452
-66.073
-66.639
-67.149
-67.603
-68.001
-68.345
-68.635
-68.872
-69.059
-69.198
-69.292
-69.343
-69.354
-69.329
-69.272
-69.187
-69.077
-68.946
-68.8
-68.642
-68.478
-68.313
-68.15
-67.996
-67.853
-67.728
-67.623
-67.542
-67.49
-67.468
-67.48
-67.529
-67.616
-67.743
-67.913
-68.125
-68.381
-68.68
-69.022
-69.408
-69.834
-70.3
-70.803
-71.34
-71.909
-72.505
-73.125
-73.765
-74.419
-75.082
-75.748
-76.411
-77.063
-77.699
-78.309
-78.887
-79.425
-79.915
-80.352
-80.726
-81.031
-81.261
-81.408
-81.467
-81.432
-81.297
-81.059
-80.713
-80.257
-79.689
-79.009
-78.215
-77.31
-76.299
-75.185
-73.976
-72.678
-71.298
-69.847
-68.333
-66.767
-65.158
-63.514
-61.846
-60.166
-58.488
-56.826
-55.193
-53.605
-52.075
-50.616
-49.244
-47.969
-46.797
-45.734
-44.789
-43.972
-43.307
-42.813
-42.497
-42.37
-42.435
-42.689
-43.128
-43.734
-44.468
-45.294
-46.182
-47.102
-48.046
-48.996
-49.923
-50.791
-51.548
-52.15
-52.579
-52.812
-52.83
-52.648
-52.298
-51.866
-51.49
-51.275
-51.315
-51.708
-52.511
-53.817
-55.733
-58.277
-61.503
-65.543
-70.441
-76.202
-82.779
-89.848
-96.976
-103.93
-110.319
-115.358
-118.517
-119.557
-118.235
-115.785
-113.735
-111.813
-110.643
-109.813
-107.442
-104.59
-101.257
-97.92
-97.96
-102.62
-112.052
-122.054
-122.334
-100.677
-45.853
44.594
164.763
303.272
443.954
575.569
689.364
775.138
827.281
838.152
801.253
718.807
593.805
434.404
254.971
69.358
-104.772
-250.032
-355.702
-417.877
-440.26
-432.63
-406.586
-371.07
-333.799
-299.732
-269.013
-240.704
-211.236
-177.261
-140.062
-103.238
-72.285
-51.512
-41.489
-40.471
-45.538
-54.459
-65.688
-77.743
-89.151
-98.249
-104.064
-106.54
-105.994
-102.935
-98.022
-91.984
-85.749
-80.331
-76.247
-73.53
-71.982
-71.281
-71.141
-71.316
-71.487
-71.281
-70.474
-69.024
-66.968
-64.41
-61.462
-58.183
-54.632
-50.903
-47.055
-43.136
-39.197
-35.251
-31.285
-27.301
-23.288
-19.227
-15.123
-10.956
-6.701
-2.346
2.134
6.764
11.551
16.51
21.661
27.021
32.612
38.454
44.549
50.899
57.505
64.362
71.469
78.816
86.388
94.169
102.141
110.284
118.581
127.007
135.537
144.142
152.791
161.451
170.088
178.666
187.148
195.495
203.667
211.625
219.329
226.742
233.823
240.534
246.837
252.696
258.075
262.941
267.263
271.011
274.157
276.679
278.555
279.767
280.3
280.144
279.292
277.74
275.487
272.538
268.9
264.583
259.603
253.978
247.729
240.881
233.464
225.509
217.049
208.122
198.765
189.021
178.93
168.536
157.883
147.018
135.985
124.832
113.603
102.345
91.102
79.92
68.841
57.905
47.152
36.621
26.345
16.359
6.691
-2.629
-11.577
-20.131
-28.271
-35.981
-43.248
-50.062
-56.415
-62.303
-67.725
-72.683
-77.179
-81.22
-84.815
-87.976
-90.713
-93.044
-94.984
-96.55
-97.764
-98.646
-99.218
-99.501
-99.521
-99.299
-98.861
-98.23
-97.43
-96.485
-95.416
-94.248
-93.001
-91.696
-90.354
-88.993
-87.631
-86.284
-84.968
-83.695
-82.479
-81.33
-80.258
-79.271
-78.376
-77.579
-76.884
-76.294
-75.812
-75.438
-75.173
-75.015
-74.962
-75.011
-75.158
-75.4
-75.73
-76.144
-76.636
-77.198
-77.826
-78.511
-79.247
-80.026
-80.842
-81.688
-82.556
-83.441
-84.336
-85.234
-86.13
-87.019
-87.895
-88.755
-89.594
-90.409
-91.195
-91.951
-92.673
-93.36
-94.011
-94.623
-95.197
-95.732
-96.228
-96.685
-97.105
-97.487
-97.833
-98.145
-98.425
-98.676
-98.898
-99.096
-99.271
-99.428
-99.568
-99.695
-99.812
-99.922
-100.028
-100.133
-100.241
-100.354
-100.476
-100.608
-100.753
-100.913
-101.09
-101.285
-101.501
-101.737
-101.994
-102.272
-102.571
-102.892
-103.233
-103.593
-103.97
-104.363
-104.769
-105.185
-105.608
-106.033
-106.457
-106.874
-107.279
-107.669
-108.036
-108.375
-108.68
-108.945
-109.163
-109.328
-109.433
-109.469
-109.431
-109.311
-109.104
-108.804
-108.404
-107.9
-107.287
-106.562
-105.722
-104.763
-103.684
-102.482
-101.158
-99.712
-98.147
-96.466
-94.672
-92.772
-90.775
-88.691
-86.53
-84.302
-82.021
-79.699
-77.351
-74.995
-72.643
-70.312
-68.016
-65.773
-63.6
-61.517
-59.538
-57.678
-55.949
-54.363
-52.936
-51.681
-50.601
-49.699
-48.977
-48.435
-48.086
-47.938
-47.99
-48.24
-48.687
-49.323
-50.143
-51.137
-52.272
-53.519
-54.847
-56.217
-57.617
-59.031
-60.436
-61.817
-63.148
-64.391
-65.53
-66.536
-67.357
-67.997
-68.472
-68.791
-69.064
-69.414
-69.985
-71.025
-72.761
-75.295
-78.666
-82.868
-87.744
-93.106
-98.654
-103.834
-108.042
-110.792
-111.879
-111.141
-108.478
-104.07
-98.121
-91.829
-87.551
-86.318
-88.138
-91.743
-93.881
-94.644
-96.362
-101.398
-113.4
-131.597
-153.036
-174.727
-189.761
-190.672
-168.114
-112.773
-23.468
93.564
226.13
360.63
488.77
607.081
712.748
798.23
852.718
865.292
828.539
746.172
626.463
476.664
307.263
127.154
-51.976
-209.609
-329.332
-403.865
-434.128
-433.338
-415.464
-385.638
-346.442
-298.519
-244.513
-193.4
-152.411
-123.628
-104.471
-89.588
-75.727
-63.11
-54.602
-52.074
-55.034
-61.519
-68.226
-72.823
-74.388
-72.696
-68.314
-61.954
-54.236
-45.895
-37.731
-30.495
-24.846
-21.037
-18.949
-18.319
-18.729
-19.765
-21.08
-22.298
-23.075
-23.222
-22.651
-21.318
-19.235
-16.409
-12.858
-8.656
-3.915
1.241
6.706
12.393
18.214
24.086
29.947
35.757
41.506
47.203
52.847
58.427
63.925
69.331
74.651
79.904
85.118
90.339
95.608
100.967
106.463
112.132
117.998
124.076
130.367
136.86
143.549
150.427
157.488
164.725
172.13
179.688
187.382
195.193
203.095
211.063
219.066
227.072
235.048
242.961
250.781
258.476
266.014
273.361
280.483
287.343
293.905
300.133
305.991
311.44
316.448
320.979
325.003
328.492
331.418
333.759
335.493
336.601
337.069
336.885
336.039
334.527
332.346
329.498
325.987
321.821
317.014
311.58
305.538
298.912
291.726
284.01
275.796
267.117
258.009
248.511
238.663
228.505
218.081
207.433
196.607
185.646
174.595
163.498
152.399
141.34
130.362
119.503
108.802
98.295
88.015
77.993
68.26
58.842
49.763
41.045
32.707
24.766
17.234
10.122
3.438
-2.814
-8.632
-14.016
-18.97
-23.5
-27.612
-31.318
-34.629
-37.557
-40.12
-42.333
-44.213
-45.78
-47.053
-48.051
-48.796
-49.307
-49.605
-49.71
-49.642
-49.421
-49.065
-48.595
-48.027
-47.379
-46.667
-45.908
-45.116
-44.305
-43.487
-42.674
-41.876
-41.102
-40.361
-39.659
-39.003
-38.398
-37.847
-37.353
-36.919
-36.545
-36.234
-35.983
-35.795
-35.666
-35.597
-35.586
-35.631
-35.73
-35.883
-36.087
-36.341
-36.643
-36.99
-37.382
-37.816
-38.292
-38.806
-39.358
-39.945
-40.567
-41.221
-41.907
-42.622
-43.365
-44.135
-44.93
-45.749
-46.591
-47.454
-48.338
-49.24
-50.16
-51.096
-52.046
-53.01
-53.984
-54.967
-55.956
-56.95
-57.946
-58.94
-59.93
-60.912
-61.884
-62.842
-63.782
-64.703
-65.599
-66.469
-67.309
-68.116
-68.89
-69.627
-70.325
-70.983
-71.601
-72.177
-72.71
-73.202
-73.651
-74.059
-74.427
-74.757
-75.05
-75.309
-75.535
-75.733
-75.903
-76.05
-76.177
-76.288
-76.385
-76.472
-76.553
-76.632
-76.713
-76.8
-76.895
-77.002
-77.123
-77.262
-77.419
-77.596
-77.792
-78.01
-78.247
-78.503
-78.778
-79.067
-79.37
-79.681
-79.998
-80.315
-80.626
-80.925
-81.206
-81.46
-81.682
-81.863
-81.998
-82.077
-82.095
-82.044
-81.918
-81.708
-81.41
-81.016
-80.52
-79.919
-79.208
-78.386
-77.45
-76.402
-75.244
-73.979
-72.613
-71.152
-69.604
-67.978
-66.284
-64.537
-62.749
-60.931
-59.098
-57.263
-55.442
-53.65
-51.903
-50.213
-48.596
-47.065
-45.635
-44.323
-43.137
-42.077
-41.146
-40.343
-39.677
-39.159
-38.801
-38.607
-38.582
-38.734
-39.065
-39.579
-40.264
-41.084
-42.002
-42.988
-44.024
-45.114
-46.268
-47.476
-48.717
-49.957
-51.158
-52.289
-53.326
-54.221
-54.917
-55.448
-55.926
-56.548
-57.596
-59.278
-61.712
-65.022
-69.288
-74.369
-79.989
-85.731
-90.982
-95.283
-98.307
-99.702
-99.297
-97.099
-93.364
-88.649
-83.528
-79.32
-77.302
-77.487
-80.531
-85.314
-90.101
-97.475
-108.058
-121.803
-139.605
-155.87
-167.324
-175.593
-179.789
-179.746
-171.239
-142.05
-81.632
13.288
139.362
284.869
433.1
571.358
689.497
778.37
833.742
852.599
831.874
772.076
674.285
538.776
371.599
184.521
-5.756
-175.768
-306.667
-390.527
-428.886
-433.778
-417.231
-384.533
-338.775
-281.275
-217.478
-159.84
-117.452
-94.269
-87.472
-86.469
-84.356
-79.073
-71.947
-68.309
-70.233
-76.286
-84.016
-89.914
-92.164
-90.936
-86.82
-80.649
-73.13
-64.758
-56.224
-48.319
-41.741
-36.802
-33.432
-31.423
-30.449
-30.172
-30.278
-30.411
-30.221
-29.53
-28.293
-26.523
-24.298
-21.683
-18.708
-15.427
-11.899
-8.161
-4.242
-0.173
4.025
8.31
12.632
16.959
21.275
25.573
29.862
34.152
38.461
42.816
47.246
51.775
56.421
61.202
66.133
71.235
76.529
82.035
87.768
93.744
99.971
106.454
113.195
120.188
127.424
134.889
142.567
150.443
158.497
166.709
175.057
183.516
192.057
200.651
209.267
217.869
226.421
234.885
243.222
251.391
259.353
267.068
274.494
281.592
288.321
294.644
300.521
305.917
310.797
315.129
318.88
322.025
324.536
326.393
327.574
328.066
327.855
326.933
325.295
322.94
319.871
316.095
311.621
306.465
300.645
294.181
287.098
279.425
271.192
262.433
253.186
243.488
233.381
222.908
212.112
201.039
189.735
178.247
166.621
154.905
143.145
131.387
119.677
108.058
96.574
85.266
74.174
63.334
52.782
42.551
32.67
23.167
14.066
5.388
-2.847
-10.626
-17.934
-24.764
-31.108
-36.963
-42.327
-47.204
-51.598
-55.515
-58.965
-61.959
-64.512
-66.64
-68.358
-69.687
-70.645
-71.255
-71.538
-71.519
-71.22
-70.666
-69.882
-68.893
-67.725
-66.401
-64.947
-63.386
-61.742
-60.038
-58.294
-56.533
-54.774
-53.034
-51.333
-49.684
-48.105
-46.607
-45.204
-43.906
-42.723
-41.662
-40.731
-39.936
-39.28
-38.767
-38.399
-38.177
-38.101
-38.17
-38.381
-38.731
-39.217
-39.834
-40.576
-41.437
-42.409
-43.486
-44.66
-45.921
-47.262
-48.673
-50.146
-51.67
-53.238
-54.838
-56.463
-58.102
-59.746
-61.386
-63.014
-64.621
-66.198
-67.738
-69.233
-70.676
-72.06
-73.379
-74.627
-75.799
-76.891
-77.897
-78.816
-79.643
-80.377
-81.017
-81.561
-82.01
-82.364
-82.625
-82.793
-82.871
-82.863
-82.771
-82.599
-82.352
-82.036
-81.654
-81.215
-80.723
-80.186
-79.61
-79.003
-78.373
-77.727
-77.074
-76.422
-75.778
-75.151
-74.549
-73.98
-73.451
-72.968
-72.54
-72.171
-71.867
-71.632
-71.472
-71.389
-71.386
-71.465
-71.629
-71.877
-72.209
-72.626
-73.124
-73.704
-74.361
-75.091
-75.89
-76.752
-77.671
-78.641
-79.654
-80.703
-81.779
-82.873
-83.974
-85.075
-86.163
-87.228
-88.258
-89.243
-90.173
-91.037
-91.826
-92.529
-93.139
-93.647
-94.046
-94.33
-94.493
-94.53
-94.435
-94.208
-93.846
-93.348
-92.716
-91.951
-91.058
-90.044
-88.915
-87.679
-86.346
-84.927
-83.436
-81.886
-80.291
-78.665
-77.019
-75.368
-73.726
-72.11
-70.531
-69.002
-67.533
-66.137
-64.828
-63.62
-62.52
-61.526
-60.637
-59.851
-59.175
-58.624
-58.206
-57.923
-57.78
-57.782
-57.935
-58.246
-58.705
-59.279
-59.931
-60.628
-61.35
-62.101
-62.884
-63.687
-64.486
-65.231
-65.876
-66.392
-66.75
-66.905
-66.816
-66.493
-66.024
-65.602
-65.49
-65.933
-67.107
-69.105
-71.977
-75.61
-79.778
-84.166
-88.245
-91.439
-93.238
-93.308
-91.523
-88.1
-83.44
-77.974
-72.43
-67.799
-65.258
-65.804
-70.16
-78.708
-91.414
-108.14
-127.608
-147.115
-163.683
-174.931
-181.123
-183.77
-181.765
-170.546
-140.781
-83.939
0.403
105.935
220.077
331.528
436.889
536.244
630.512
714.612
775.644
798.776
771.583
691.085
563.249
400.6
220.58
40.138
-123.775
-256.918
-351.832
-406.348
-425.087
-417.071
-389.905
-351.175
-307.833
-263.894
-224.038
-190.139
-159.492
-130.988
-103.455
-77.73
-58.48
-47.815
-45.953
-51.674
-61.536
-73.008
-84.353
-93.951
-100.821
-104.486
-104.916
-102.514
-97.903
-91.749
-84.799
-77.919
-71.973
-67.385
-64.158
-62.088
-60.801
-59.998
-59.458
-58.874
-57.915
-56.406
-54.301
-51.648
-48.582
-45.182
-41.474
-37.509
-33.338
-29.012
-24.582
-20.085
-15.543
-10.974
-6.388
-1.794
2.806
7.418
12.058
16.746
21.514
26.383
31.363
36.466
41.697
47.071
52.606
58.319
64.224
70.334
76.656
83.198
89.964
96.954
104.161
111.574
119.175
126.951
134.887
142.965
151.166
159.469
167.848
176.276
184.726
193.167
201.565
209.883
218.086
226.134
233.991
241.617
248.974
256.024
262.728
269.048
274.947
280.39
285.342
289.768
293.639
296.925
299.6
301.64
303.025
303.736
303.761
303.088
301.712
299.629
296.84
293.35
289.168
284.305
278.779
272.607
265.813
258.424
250.468
241.977
232.988
223.538
213.665
203.413
192.824
181.943
170.817
159.491
148.013
136.43
124.789
113.137
101.521
89.984
78.57
67.322
56.279
45.479
34.958
24.749
14.882
5.384
-3.72
-12.408
-20.664
-28.471
-35.817
-42.693
-49.094
-55.017
-60.46
-65.428
-69.924
-73.958
-77.54
-80.683
-83.401
-85.712
-87.635
-89.19
-90.398
-91.283
-91.869
-92.18
-92.241
-92.078
-91.716
-91.18
-90.495
-89.687
-88.779
-87.793
-86.753
-85.679
-84.591
-83.507
-82.445
-81.419
-80.445
-79.534
-78.698
-77.947
-77.289
-76.73
-76.277
-75.931
-75.696
-75.573
-75.561
-75.658
-75.862
-76.168
-76.573
-77.07
-77.654
-78.318
-79.054
-79.855
-80.714
-81.622
-82.571
-83.554
-84.561
-85.587
-86.623
-87.663
-88.699
-89.727
-90.741
-91.735
-92.705
-93.648
-94.559
-95.436
-96.277
-97.079
-97.842
-98.566
-99.249
-99.894
-100.499
-101.068
-101.601
-102.101
-102.57
-103.009
-103.421
-103.81
-104.177
-104.525
-104.858
-105.177
-105.484
-105.783
-106.076
-106.363
-106.647
-106.93
-107.212
-107.493
-107.776
-108.059
-108.343
-108.628
-108.914
-109.201
-109.487
-109.772
-110.055
-110.334
-110.61
-110.88
-111.144
-111.4
-111.648
-111.888
-112.118
-112.338
-112.549
-112.75
-112.943
-113.126
-113.301
-113.468
-113.629
-113.783
-113.932
-114.077
-114.219
-114.36
-114.501
-114.644
-114.79
-114.94
-115.095
-115.257
-115.426
-115.603
-115.789
-115.983
-116.185
-116.395
-116.613
-116.837
-117.067
-117.299
-117.531
-117.76
-117.982
-118.192
-118.385
-118.555
-118.697
-118.805
-118.873
-118.894
-118.863
-118.774
-118.619
-118.393
-118.09
-117.705
-117.231
-116.664
-115.999
-115.234
-114.367
-113.396
-112.321
-111.143
-109.867
-108.494
-107.031
-105.483
-103.858
-102.164
-100.413
-98.617
-96.785
-94.928
-93.059
-91.191
-89.338
-87.512
-85.726
-83.99
-82.318
-80.724
-79.223
-77.823
-76.526
-75.334
-74.246
-73.27
-72.421
-71.708
-71.137
-70.714
-70.443
-70.329
-70.378
-70.581
-70.906
-71.317
-71.784
-72.286
-72.83
-73.429
-74.076
-74.751
-75.416
-76.028
-76.56
-76.999
-77.299
-77.406
-77.348
-77.231
-77.262
-77.754
-78.937
-80.945
-83.929
-87.979
-92.96
-98.62
-104.539
-110.051
-114.664
-118.026
-119.665
-119.35
-117.268
-113.763
-109.424
-105.13
-101.555
-99.384
-99.614
-102.998
-109.886
-120.362
-134.327
-150.726
-167.287
-181.527
-190.669
-194.147
-195.418
-196.908
-197.247
-189.835
-161.511
-101.475
-8.293
111.116
242.94
373.949
497.698
611.386
710.181
784.987
822.636
810.573
746.687
637.754
495.065
332.975
160.656
-12.873
-174.133
-310.709
-409.866
-465.847
-484.195
-473.104
-441.07
-395.02
-338.08
-276.134
-219.676
-176.333
-150.009
-138.604
-132.85
-126.673
-118.426
-109.475
-104.7
-105.93
-111.89
-120.241
-127.655
-132.341
-133.828
-132.153
-127.973
-121.829
-114.115
-105.473
-96.467
-87.67
-79.761
-72.967
-67.206
-62.302
-57.906
-53.729
-49.588
-45.236
-40.396
-34.944
-28.844
-22.134
-14.951
-7.371
0.564
8.794
17.262
25.903
34.651
43.45
52.257
61.036
69.761
78.412
86.971
95.431
103.793
112.069
120.281
128.44
136.552
144.623
152.653
160.652
168.634
176.612
184.598
192.601
200.626
208.678
216.763
224.881
233.025
241.187
249.354
257.515
265.66
273.777
281.853
289.874
297.821
305.676
313.422
321.035
328.491
335.765
342.829
349.656
356.218
362.487
368.435
374.034
379.256
384.073
388.459
392.389
395.838
398.783
401.2
403.072
404.379
405.106
405.239
404.768
403.684
401.983
399.661
396.721
393.164
388.999
384.233
378.88
372.955
366.476
359.463
351.94
343.933
335.471
326.583
317.303
307.665
297.704
287.458
276.965
266.262
255.39
244.387
233.292
222.144
210.983
199.845
188.768
177.788
166.939
156.254
145.764
135.498
125.484
115.747
106.308
97.189
88.408
79.98
71.918
64.235
56.937
50.032
43.522
37.411
31.696
26.375
21.444
16.896
12.722
8.913
5.457
2.341
-0.447
-2.924
-5.105
-7.006
-8.645
-10.038
-11.204
-12.162
-12.928
-13.521
-13.959
-14.259
-14.439
-14.514
-14.5
-14.413
-14.267
-14.075
-13.851
-13.606
-13.351
-13.096
-12.851
-12.624
-12.422
-12.252
-12.119
-12.028
-11.984
-11.99
-12.047
-12.16
-12.328
-12.553
-12.834
-13.173
-13.568
-14.019
-14.524
-15.082
-15.691
-16.349
-17.053
-17.801
-18.591
-19.42
-20.286
-21.185
-22.115
-23.074
-24.059
-25.067
-26.096
-27.143
-28.207
-29.284
-30.373
-31.472
-32.579
-33.691
-34.808
-35.926
-37.046
-38.164
-39.279
-40.391
-41.497
-42.595
-43.686
-44.766
-45.834
-46.89
-47.932
-48.959
-49.97
-50.964
-51.941
-52.898
-53.836
-54.754
-55.651
-56.527
-57.381
-58.214
-59.023
-59.81
-60.574
-61.315
-62.032
-62.727
-63.398
-64.046
-64.672
-65.275
-65.855
-66.414
-66.951
-67.467
-67.964
-68.44
-68.898
-69.338
-69.762
-70.17
-70.563
-70.942
-71.309
-71.664
-72.01
-72.347
-72.676
-73
-73.32
-73.637
-73.954
-74.271
-74.592
-74.919
-75.253
-75.596
-75.953
-76.324
-76.712
-77.119
-77.549
-78.002
-78.482
-78.99
-79.529
-80.099
-80.703
-81.343
-82.018
-82.731
-83.481
-84.269
-85.095
-85.958
-86.858
-87.792
-88.758
-89.753
-90.776
-91.822
-92.888
-93.968
-95.058
-96.151
-97.242
-98.322
-99.385
-100.422
-101.423
-102.38
-103.283
-104.123
-104.891
-105.577
-106.172
-106.667
-107.052
-107.319
-107.459
-107.463
-107.325
-107.038
-106.596
-105.994
-105.231
-104.304
-103.214
-101.963
-100.555
-98.994
-97.287
-95.442
-93.469
-91.381
-89.19
-86.907
-84.548
-82.127
-79.661
-77.167
-74.661
-72.159
-69.677
-67.231
-64.837
-62.514
-60.272
-58.117
-56.054
-54.089
-52.232
-50.501
-48.907
-47.457
-46.157
-45.017
-44.043
-43.241
-42.606
-42.11
-41.725
-41.427
-41.203
-41.062
-41.016
-41.062
-41.182
-41.343
-41.518
-41.687
-41.84
-41.938
-41.92
-41.8
-41.677
-41.738
-42.269
-43.507
-45.567
-48.598
-52.774
-58.02
-64.129
-70.732
-77.082
-82.555
-86.765
-89.143
-89.19
-86.895
-82.397
-76.125
-69.217
-62.674
-57.319
-54.424
-55.206
-60.365
-70.408
-85.578
-104.536
-124.722
-143.636
-158.123
-166.683
-171.748
-174.822
-174.15
-164.878
-136.064
-76.868
14.946
135.576
274.9
417.768
553.58
673.67
767.646
828.301
848.271
822.968
756.553
656.373
531.319
388.984
233.162
69.402
-92.947
-239
-352.199
-423.507
-452.721
-449.37
-427.839
-397.236
-361.713
-321.386
-274.172
-222.104
-169.961
-122.746
-85.37
-59.997
-46.29
-42.926
-47.702
-58.176
-71.845
-86.156
-98.755
-107.729
-112.174
-112.118
-108.096
-101.097
-92.372
-83.104
-74.495
-67.642
-62.966
-60.427
-59.789
-60.545
-62.18
-64.282
-66.364
-67.968
-68.897
-69.073
-68.486
-67.206
-65.224
-62.525
-59.176
-55.27
-50.922
-46.235
-41.273
-36.096
-30.792
-25.429
-20.054
-14.69
-9.315
-3.917
1.503
6.938
12.365
17.774
23.175
28.586
34.045
39.586
45.238
51.037
57.022
63.221
69.655
76.329
83.228
90.341
97.661
105.179
112.889
120.782
128.843
137.054
145.397
153.848
162.384
170.976
179.591
188.195
196.757
205.242
213.623
221.866
229.939
237.805
245.431
252.781
259.819
266.51
272.817
278.704
284.137
289.084
293.514
297.399
300.712
303.431
305.532
306.999
307.816
307.971
307.454
306.262
304.39
301.842
298.622
294.738
290.203
285.031
279.243
272.858
265.903
258.405
250.395
241.904
232.969
223.624
213.909
203.863
193.526
182.942
172.152
161.2
150.13
138.985
127.808
116.641
105.525
94.501
83.607
72.88
62.354
52.064
42.039
32.308
22.897
13.83
5.126
-3.195
-11.119
-18.634
-25.728
-32.396
-38.633
-44.435
-49.804
-54.742
-59.253
-63.343
-67.022
-70.299
-73.186
-75.697
-77.846
-79.65
-81.125
-82.289
-83.162
-83.761
-84.108
-84.222
-84.122
-83.829
-83.363
-82.743
-81.988
-81.116
-80.145
-79.093
-77.975
-76.807
-75.603
-74.377
-73.14
-71.904
-70.679
-69.476
-68.303
-67.166
-66.074
-65.031
-64.042
-63.112
-62.244
-61.441
-60.703
-60.033
-59.43
-58.895
-58.427
-58.025
-57.687
-57.41
-57.193
-57.034
-56.928
-56.872
-56.864
-56.9
-56.977
-57.09
-57.237
-57.413
-57.616
-57.842
-58.088
-58.351
-58.627
-58.913
-59.208
-59.507
-59.809
-60.111
-60.411
-60.707
-60.998
-61.281
-61.556
-61.822
-62.077
-62.322
-62.555
-62.776
-62.984
-63.182
-63.367
-63.541
-63.705
-63.86
-64.005
-64.143
-64.274
-64.399
-64.52
-64.637
-64.751
-64.865
-64.979
-65.093
-65.211
-65.332
-65.457
-65.589
-65.726
-65.871
-66.023
-66.184
-66.352
-66.527
-66.711
-66.901
-67.098
-67.3
-67.508
-67.72
-67.935
-68.151
-68.368
-68.583
-68.795
-69.002
-69.203
-69.396
-69.579
-69.751
-69.91
-70.056
-70.187
-70.302
-70.401
-70.482
-70.546
-70.59
-70.617
-70.625
-70.615
-70.588
-70.546
-70.49
-70.421
-70.343
-70.257
-70.166
-70.072
-69.978
-69.886
-69.8
-69.721
-69.653
-69.598
-69.559
-69.54
-69.541
-69.566
-69.615
-69.691
-69.793
-69.922
-70.078
-70.26
-70.467
-70.697
-70.948
-71.219
-71.506
-71.805
-72.114
-72.425
-72.736
-73.039
-73.328
-73.595
-73.833
-74.033
-74.19
-74.296
-74.342
-74.321
-74.227
-74.051
-73.787
-73.429
-72.97
-72.404
-71.727
-70.936
-70.028
-69.002
-67.86
-66.603
-65.236
-63.766
-62.199
-60.542
-58.805
-56.997
-55.132
-53.223
-51.281
-49.322
-47.359
-45.41
-43.491
-41.62
-39.811
-38.078
-36.434
-34.892
-33.47
-32.181
-31.026
-30.011
-29.139
-28.416
-27.858
-27.476
-27.267
-27.235
-27.381
-27.704
-28.209
-28.887
-29.708
-30.644
-31.662
-32.738
-33.869
-35.054
-36.289
-37.558
-38.823
-40.056
-41.236
-42.34
-43.351
-44.23
-44.934
-45.516
-46.105
-46.904
-48.203
-50.203
-53.016
-56.808
-61.665
-67.494
-74.116
-81.032
-87.467
-92.841
-96.636
-98.3
-97.594
-94.474
-89.017
-81.962
-74.491
-67.623
-62.549
-60.621
-62.782
-69.877
-82.763
-100.221
-119.236
-137.345
-151.54
-162.156
-173.677
-186.111
-195.71
-192.248
-159.056
-88.442
17.938
148.928
285.573
416.894
537.345
645.458
742.036
818.767
866.1
874.819
836.39
752.255
626.136
464.609
281.505
91.842
-85.11
-229.149
-329.212
-384.498
-403.699
-400.958
-386.206
-361.172
-324.354
-275.49
-219.857
-168.126
-128.693
-103.667
-88.642
-76.953
-64.968
-53.189
-45.468
-44.483
-50.084
-60.273
-71.464
-81.068
-87.877
-91.4
-91.977
-90.036
-85.939
-80.29
-73.861
-67.503
-62.091
-58.092
-55.531
-54.26
-53.961
-54.294
-54.973
-55.653
-55.958
-55.692
-54.801
-53.306
-51.324
-48.942
-46.196
-43.15
-39.871
-36.405
-32.801
-29.094
-25.305
-21.47
-17.618
-13.76
-9.91
-6.061
-2.2
1.689
5.631
9.656
13.782
18.026
22.399
26.914
31.587
36.441
41.491
46.754
52.245
57.971
63.944
70.166
76.635
83.344
90.282
97.433
104.787
112.328
120.04
127.904
135.9
144.003
152.189
160.429
168.693
176.948
185.156
193.283
201.29
209.14
216.794
224.213
231.359
238.192
244.674
250.769
256.438
261.647
266.362
270.55
274.181
277.229
279.667
281.474
282.632
283.126
282.943
282.075
280.518
278.271
275.335
271.718
267.428
262.479
256.888
250.675
243.864
236.482
228.558
220.126
211.222
201.882
192.148
182.059
171.66
160.995
150.108
139.045
127.853
116.578
105.265
93.959
82.706
71.548
60.526
49.68
39.047
28.663
18.561
8.771
-0.68
-9.765
-18.462
-26.753
-34.619
-42.048
-49.028
-55.552
-61.613
-67.21
-72.344
-77.016
-81.233
-85.002
-88.334
-91.241
-93.736
-95.837
-97.561
-98.926
-99.955
-100.667
-101.085
-101.233
-101.133
-100.808
-100.282
-99.577
-98.716
-97.721
-96.612
-95.411
-94.137
-92.808
-91.442
-90.055
-88.663
-87.279
-85.917
-84.588
-83.303
-82.071
-80.901
-79.798
-78.769
-77.819
-76.95
-76.165
-75.465
-74.851
-74.321
-73.874
-73.507
-73.217
-72.999
-72.849
-72.763
-72.736
-72.761
-72.834
-72.949
-73.101
-73.283
-73.492
-73.721
-73.966
-74.221
-74.482
-74.744
-75.003
-75.255
-75.495
-75.719
-75.925
-76.107
-76.263
-76.388
-76.481
-76.537
-76.555
-76.531
-76.464
-76.352
-76.194
-75.988
-75.734
-75.431
-75.078
-74.676
-74.224
-73.723
-73.174
-72.576
-71.931
-71.239
-70.501
-69.718
-68.892
-68.023
-67.113
-66.165
-65.179
-64.158
-63.105
-62.022
-60.913
-59.78
-58.628
-57.461
-56.283
-55.098
-53.91
-52.726
-51.548
-50.383
-49.233
-48.104
-47.001
-45.926
-44.885
-43.88
-42.915
-41.995
-41.121
-40.296
-39.525
-38.808
-38.147
-37.546
-37.006
-36.527
-36.112
-35.76
-35.474
-35.252
-35.095
-35.002
-34.973
-35.006
-35.098
-35.248
-35.454
-35.711
-36.017
-36.367
-36.759
-37.188
-37.651
-38.143
-38.661
-39.2
-39.757
-40.328
-40.908
-41.494
-42.081
-42.666
-43.244
-43.812
-44.366
-44.903
-45.418
-45.909
-46.371
-46.8
-47.193
-47.546
-47.854
-48.113
-48.32
-48.471
-48.565
-48.597
-48.565
-48.467
-48.3
-48.064
-47.756
-47.375
-46.918
-46.387
-45.78
-45.098
-44.344
-43.518
-42.623
-41.664
-40.646
-39.574
-38.453
-37.292
-36.097
-34.881
-33.651
-32.416
-31.185
-29.965
-28.764
-27.595
-26.464
-25.379
-24.346
-23.375
-22.474
-21.656
-20.928
-20.284
-19.72
-19.233
-18.823
-18.502
-18.28
-18.156
-18.132
-18.212
-18.402
-18.707
-19.123
-19.616
-20.148
-20.685
-21.207
-21.723
-22.252
-22.789
-23.309
-23.772
-24.13
-24.359
-24.453
-24.37
-24.05
-23.517
-22.878
-22.348
-22.237
-22.785
-24.118
-26.324
-29.463
-33.382
-37.805
-42.377
-46.508
-49.737
-51.783
-52.381
-51.464
-49.369
-46.566
-43.527
-40.97
-39.377
-39.192
-41.239
-45.927
-53.091
-62.534
-73.906
-86.641
-100.749
-114.929
-125.598
-130.126
-126.386
-114.201
-97.461
-77.888
-53.05
-18.193
35.084
113.476
215.907
337.458
469.814
601.046
721.665
820.443
884.113
902.963
869.811
785.386
657.541
496.45
315.986
130.491
-44.266
-190.674
-297.003
-360.987
-388.715
-392.3
-381.463
-357.778
-320.529
-270.741
-214.069
-161.679
-121.904
-96.283
-80.544
-68.176
-55.744
-43.996
-36.535
-35.76
-41.372
-51.25
-61.861
-70.673
-76.495
-78.908
-78.346
-75.332
-70.285
-63.811
-56.656
-49.633
-43.627
-39.119
-36.141
-34.549
-34.002
-34.132
-34.656
-35.231
-35.48
-35.207
-34.344
-32.893
-30.973
-28.671
-26.019
-23.082
-19.919
-16.56
-13.049
-9.418
-5.689
-1.908
1.891
5.697
9.494
13.289
17.096
20.928
24.818
28.805
32.912
37.162
41.569
46.141
50.893
55.848
61.023
66.443
72.134
78.108
84.374
90.936
97.783
104.894
112.234
119.753
127.394
135.123
142.908
150.729
158.585
166.464
174.36
182.27
190.168
198.035
205.855
213.598
221.244
228.794
236.262
243.691
251.143
258.633
266.156
273.684
281.145
288.462
295.542
302.26
308.517
314.23
319.316
323.723
327.403
330.271
332.241
333.197
332.997
331.558
328.83
324.786
319.462
312.917
305.245
296.599
287.113
276.895
266.048
254.645
242.751
230.468
217.896
205.152
192.386
179.711
167.22
155.003
143.102
131.535
120.294
109.323
98.57
88.02
77.662
67.509
57.584
47.891
38.439
29.242
20.287
11.571
3.094
-5.153
-13.161
-20.906
-28.358
-35.465
-42.18
-48.476
-54.332
-59.742
-64.707
-69.229
-73.319
-76.995
-80.273
-83.165
-85.683
-87.837
-89.64
-91.111
-92.273
-93.15
-93.771
-94.158
-94.336
-94.326
-94.147
-93.818
-93.354
-92.766
-92.068
-91.273
-90.395
-89.449
-88.451
-87.412
-86.348
-85.271
-84.192
-83.123
-82.072
-81.047
-80.054
-79.1
-78.189
-77.326
-76.515
-75.759
-75.06
-74.42
-73.84
-73.32
-72.861
-72.462
-72.122
-71.84
-71.613
-71.441
-71.322
-71.254
-71.234
-71.262
-71.336
-71.454
-71.614
-71.812
-72.048
-72.318
-72.619
-72.949
-73.304
-73.683
-74.082
-74.5
-74.935
-75.383
-75.843
-76.314
-76.792
-77.275
-77.763
-78.252
-78.741
-79.229
-79.712
-80.191
-80.663
-81.127
-81.581
-82.022
-82.451
-82.864
-83.259
-83.635
-83.99
-84.322
-84.629
-84.91
-85.163
-85.387
-85.579
-85.739
-85.866
-85.959
-86.016
-86.037
-86.023
-85.973
-85.887
-85.767
-85.613
-85.427
-85.21
-84.964
-84.691
-84.393
-84.074
-83.736
-83.382
-83.017
-82.644
-82.268
-81.892
-81.522
-81.161
-80.816
-80.49
-80.188
-79.916
-79.677
-79.476
-79.318
-79.207
-79.147
-79.142
-79.195
-79.308
-79.484
-79.725
-80.03
-80.4
-80.833
-81.329
-81.887
-82.502
-83.172
-83.893
-84.66
-85.466
-86.307
-87.175
-88.062
-88.959
-89.858
-90.749
-91.624
-92.472
-93.283
-94.047
-94.755
-95.397
-95.964
-96.447
-96.835
-97.122
-97.3
-97.362
-97.302
-97.116
-96.8
-96.354
-95.779
-95.078
-94.253
-93.309
-92.251
-91.09
-89.835
-88.493
-87.074
-85.582
-84.029
-82.428
-80.793
-79.137
-77.473
-75.811
-74.165
-72.552
-70.989
-69.487
-68.051
-66.681
-65.385
-64.177
-63.086
-62.129
-61.316
-60.655
-60.152
-59.812
-59.641
-59.628
-59.737
-59.936
-60.187
-60.461
-60.756
-61.063
-61.361
-61.63
-61.81
-61.843
-61.706
-61.369
-60.818
-60.095
-59.212
-58.166
-57.09
-56.172
-55.597
-55.61
-56.289
-57.529
-59.346
-61.899
-65.242
-69.275
-73.735
-78.069
-81.943
-85.429
-88.449
-90.668
-91.724
-91.395
-89.853
-88.025
-86.824
-86.53
-87.572
-90.573
-96.105
-104.933
-116.366
-127.176
-134.208
-135.029
-129.153
-119.798
-108.475
-92.566
-66.568
-20.898
52.118
151.885
273.087
405.755
535.782
653.362
748.976
811.224
834.433
813.09
745.124
636.717
493.43
324.725
144.042
-34.803
-194.123
-319.519
-402.638
-443.089
-447.326
-422.04
-376.652
-318.477
-255.678
-200.872
-159.881
-135.016
-123.145
-113.196
-99.823
-82.067
-61.952
-46.688
-39.296
-38.749
-43.548
-50.434
-57.681
-65.484
-73.404
-80.646
-86.61
-90.867
-93.264
-93.939
-92.802
-89.508
-84.263
-77.954
-71.461
-65.258
-59.554
-54.358
-49.833
-46.429
-44.264
-42.916
-41.787
-40.452
-38.734
-36.653
-34.199
-31.173
-27.461
-23.173
-18.566
-13.893
-9.269
-4.681
-0.073
4.555
9.177
13.792
18.44
23.193
28.096
33.157
38.359
43.686
49.141
54.745
60.523
66.493
72.664
79.042
85.63
92.432
99.452
106.689
114.137
121.784
129.619
137.63
145.808
154.142
162.615
171.205
179.885
188.63
197.41
206.194
214.95
223.641
232.231
240.682
248.957
257.016
264.823
272.338
279.522
286.337
292.747
298.715
304.206
309.187
313.627
317.497
320.769
323.419
325.426
326.771
327.439
327.419
326.703
325.286
323.168
320.352
316.844
312.655
307.799
302.293
296.158
289.418
282.103
274.242
265.869
257.02
247.734
238.05
228.01
217.657
207.034
196.187
185.159
173.998
162.747
151.452
140.158
128.908
117.743
106.706
95.834
85.165
74.734
64.572
54.71
45.175
35.991
27.179
18.76
10.749
3.159
-4
-10.72
-16.996
-22.827
-28.212
-33.155
-37.661
-41.737
-45.393
-48.639
-51.488
-53.954
-56.052
-57.799
-59.213
-60.311
-61.114
-61.641
-61.912
-61.947
-61.767
-61.392
-60.842
-60.135
-59.292
-58.329
-57.265
-56.115
-54.897
-53.623
-52.309
-50.966
-49.608
-48.243
-46.883
-45.536
-44.209
-42.911
-41.647
-40.423
-39.245
-38.117
-37.043
-36.026
-35.071
-34.18
-33.354
-32.596
-31.907
-31.289
-30.741
-30.264
-29.858
-29.523
-29.259
-29.065
-28.941
-28.885
-28.897
-28.976
-29.12
-29.328
-29.599
-29.933
-30.326
-30.78
-31.291
-31.859
-32.481
-33.157
-33.882
-34.656
-35.475
-36.334
-37.231
-38.161
-39.12
-40.102
-41.103
-42.118
-43.14
-44.165
-45.188
-46.201
-47.201
-48.182
-49.138
-50.066
-50.959
-51.815
-52.629
-53.397
-54.116
-54.783
-55.395
-55.949
-56.442
-56.874
-57.241
-57.543
-57.778
-57.948
-58.052
-58.091
-58.067
-57.983
-57.841
-57.646
-57.401
-57.113
-56.786
-56.426
-56.04
-55.636
-55.22
-54.8
-54.382
-53.975
-53.586
-53.22
-52.885
-52.586
-52.329
-52.12
-51.964
-51.865
-51.828
-51.857
-51.954
-52.124
-52.369
-52.69
-53.089
-53.565
-54.119
-54.748
-55.452
-56.226
-57.069
-57.975
-58.939
-59.954
-61.013
-62.107
-63.229
-64.367
-65.511
-66.652
-67.778
-68.88
-69.947
-70.968
-71.935
-72.837
-73.666
-74.413
-75.069
-75.627
-76.079
-76.42
-76.645
-76.751
-76.733
-76.592
-76.327
-75.942
-75.438
-74.822
-74.098
-73.274
-72.361
-71.371
-70.315
-69.205
-68.054
-66.874
-65.679
-64.487
-63.312
-62.167
-61.065
-60.02
-59.049
-58.168
-57.388
-56.709
-56.133
-55.66
-55.297
-55.06
-54.962
-55.009
-55.207
-55.56
-56.071
-56.745
-57.573
-58.521
-59.55
-60.625
-61.723
-62.852
-64.023
-65.23
-66.451
-67.635
-68.731
-69.701
-70.52
-71.15
-71.54
-71.711
-71.766
-71.908
-72.425
-73.561
-75.469
-78.241
-81.952
-86.455
-91.46
-96.643
-101.456
-105.403
-108.138
-109.299
-108.644
-106.401
-103.025
-98.91
-94.763
-91.232
-88.939
-88.912
-92.049
-98.557
-108.191
-120.644
-135.29
-151.416
-167.932
-181.787
-188.851
-185.982
-171.168
-145.18
-110.693
-67.803
-14.374
53.832
141.239
246.812
365.23
487.711
603.753
705.625
784.247
830.394
837.191
797.179
710.863
584.569
425.119
246.181
60.63
-117.053
-268.001
-380.792
-448.531
-473.293
-465.291
-431.545
-380.821
-319.459
-253.409
-195.036
-151.654
-126.389
-117.446
-114.544
-111.256
-105.562
-98.353
-95.005
-97.338
-103.7
-111.462
-116.575
-117.268
-113.927
-107.121
-97.97
-87.552
-76.599
-66.255
-57.738
-51.611
-48.017
-46.802
-47.512
-49.661
-52.811
-56.396
-59.849
-62.861
-65.28
-67.069
-68.274
-68.892
-68.883
-68.22
-66.906
-64.933
-62.319
-59.101
-55.343
-51.172
-46.72
-42.112
-37.442
-32.761
-28.099
-23.469
-18.873
-14.304
-9.756
-5.233
-0.741
3.713
8.141
12.568
17.039
21.612
26.336
31.261
36.432
41.877
47.626
53.686
60.047
66.691
73.605
80.768
88.159
95.742
103.459
111.266
119.131
127.027
134.941
142.851
150.731
158.562
166.33
174.025
181.647
189.186
196.617
203.943
211.182
218.379
225.609
232.9
240.234
247.584
254.909
262.159
269.281
276.184
282.75
288.886
294.513
299.567
303.999
307.706
310.56
312.425
313.144
312.628
310.846
307.763
303.36
297.646
290.664
282.514
273.348
263.261
252.313
240.577
228.141
215.17
201.855
188.365
174.866
161.478
148.291
135.417
122.963
110.998
99.55
88.609
78.134
68.154
58.739
49.92
41.686
33.954
26.63
19.665
13.029
6.707
0.673
-5.115
-10.696
-16.071
-21.215
-26.106
-30.72
-35.093
-39.283
-43.31
-47.155
-50.758
-54.068
-57.066
-59.759
-62.146
-64.212
-65.943
-67.336
-68.419
-69.231
-69.797
-70.129
-70.216
-70.045
-69.624
-68.985
-68.17
-67.217
-66.15
-64.988
-63.756
-62.488
-61.21
-59.939
-58.674
-57.417
-56.175
-54.964
-53.802
-52.704
-51.678
-50.728
-49.857
-49.07
-48.37
-47.757
-47.23
-46.783
-46.416
-46.129
-45.926
-45.81
-45.779
-45.833
-45.97
-46.187
-46.484
-46.856
-47.299
-47.805
-48.371
-48.993
-49.667
-50.387
-51.149
-51.949
-52.782
-53.643
-54.528
-55.432
-56.349
-57.276
-58.208
-59.142
-60.072
-60.996
-61.91
-62.811
-63.696
-64.563
-65.409
-66.231
-67.028
-67.797
-68.536
-69.244
-69.918
-70.559
-71.163
-71.731
-72.263
-72.759
-73.22
-73.645
-74.036
-74.394
-74.718
-75.011
-75.273
-75.504
-75.706
-75.881
-76.029
-76.154
-76.256
-76.338
-76.402
-76.451
-76.487
-76.511
-76.528
-76.538
-76.545
-76.551
-76.558
-76.57
-76.588
-76.615
-76.655
-76.709
-76.778
-76.866
-76.972
-77.098
-77.244
-77.409
-77.594
-77.798
-78.02
-78.258
-78.513
-78.78
-79.06
-79.348
-79.641
-79.936
-80.229
-80.515
-80.788
-81.043
-81.273
-81.475
-81.641
-81.765
-81.84
-81.861
-81.822
-81.716
-81.537
-81.278
-80.934
-80.5
-79.972
-79.347
-78.622
-77.796
-76.871
-75.849
-74.736
-73.536
-72.254
-70.895
-69.467
-67.978
-66.439
-64.858
-63.244
-61.608
-59.96
-58.317
-56.695
-55.106
-53.564
-52.079
-50.663
-49.331
-48.097
-46.969
-45.952
-45.054
-44.284
-43.658
-43.194
-42.896
-42.77
-42.817
-43.032
-43.41
-43.939
-44.588
-45.328
-46.135
-46.98
-47.844
-48.714
-49.563
-50.375
-51.136
-51.821
-52.414
-52.891
-53.209
-53.369
-53.428
-53.439
-53.464
-53.599
-53.937
-54.674
-56.115
-58.421
-61.614
-65.658
-70.487
-76.065
-82.318
-88.85
-94.935
-99.974
-103.595
-105.676
-106.239
-105.08
-102.03
-97.496
-92.481
-88.087
-85.364
-84.955
-87.083
-92.567
-101.473
-111.965
-121.89
-128.62
-131.122
-132.048
-132.583
-130.19
-118.358
-85.702
-23.707
68.541
185.289
314.844
445.567
568.844
678.928
770.686
836.255
868.284
858.577
801.133
697.3
549.565
366.74
165.436
-36.44
-216.391
-354.477
-441.007
-474.888
-463.183
-419.224
-357.349
-289.093
-225.847
-175.153
-138.732
-117.026
-105.821
-100.052
-96.848
-92.434
-85.852
-76.857
-66.343
-58.474
-55.641
-59.315
-68.528
-78.554
-86.09
-89.337
-88.11
-84.322
-79.169
-73.139
-66.708
-60.199
-54.26
-49.431
-45.777
-43.104
-41.089
-39.475
-38.084
-36.651
-34.852
-32.487
-29.489
-25.912
-21.891
-17.498
-12.769
-7.754
-2.509
2.904
8.427
14.018
19.645
25.284
30.912
36.51
42.065
47.578
53.057
58.523
64.008
69.531
75.111
80.766
86.505
92.341
98.294
104.377
110.612
117.023
123.622
130.413
137.398
144.568
151.907
159.399
167.008
174.683
182.384
190.065
197.7
205.285
212.807
220.247
227.588
234.802
241.884
248.853
255.719
262.481
269.15
275.727
282.258
288.82
295.467
302.232
309.108
316.041
322.985
329.906
336.742
343.432
349.881
355.949
361.535
366.562
370.936
374.561
377.283
378.896
379.234
378.183
375.684
371.734
366.329
359.458
351.161
341.499
330.567
318.503
305.389
291.287
276.3
260.553
244.243
227.631
210.955
194.394
178.091
162.152
146.679
131.78
117.518
103.929
91.04
78.863
67.468
56.93
47.29
38.543
30.627
23.426
16.815
10.713
5.05
-0.226
-5.157
-9.789
-14.142
-18.219
-22.028
-25.59
-28.969
-32.232
-35.428
-38.57
-41.641
-44.594
-47.365
-49.914
-52.205
-54.209
-55.919
-57.33
-58.453
-59.311
-59.93
-60.319
-60.47
-60.376
-60.034
-59.456
-58.672
-57.72
-56.648
-55.503
-54.327
-53.16
-52.03
-50.958
-49.957
-49.036
-48.195
-47.44
-46.782
-46.231
-45.797
-45.489
-45.307
-45.251
-45.317
-45.499
-45.791
-46.186
-46.678
-47.263
-47.94
-48.707
-49.566
-50.516
-51.556
-52.684
-53.895
-55.184
-56.546
-57.975
-59.465
-61.01
-62.603
-64.238
-65.912
-67.619
-69.353
-71.111
-72.886
-74.674
-76.472
-78.274
-80.076
-81.876
-83.669
-85.453
-87.225
-88.982
-90.722
-92.442
-94.141
-95.815
-97.462
-99.081
-100.668
-102.223
-103.742
-105.224
-106.669
-108.075
-109.442
-110.771
-112.06
-113.312
-114.527
-115.706
-116.85
-117.961
-119.04
-120.089
-121.109
-122.102
-123.069
-124.011
-124.932
-125.831
-126.709
-127.569
-128.411
-129.236
-130.045
-130.838
-131.617
-132.382
-133.132
-133.868
-134.589
-135.295
-135.984
-136.654
-137.304
-137.932
-138.534
-139.109
-139.652
-140.159
-140.626
-141.049
-141.422
-141.74
-141.996
-142.186
-142.302
-142.34
-142.293
-142.158
-141.927
-141.597
-141.163
-140.623
-139.973
-139.21
-138.332
-137.337
-136.227
-135
-133.66
-132.208
-130.649
-128.989
-127.236
-125.397
-123.483
-121.503
-119.469
-117.392
-115.287
-113.162
-111.03
-108.903
-106.794
-104.719
-102.695
-100.736
-98.859
-97.077
-95.405
-93.858
-92.449
-91.18
-90.055
-89.081
-88.265
-87.628
-87.184
-86.939
-86.899
-87.07
-87.447
-88.028
-88.797
-89.716
-90.753
-91.877
-93.06
-94.293
-95.561
-96.83
-98.064
-99.21
-100.223
-101.078
-101.749
-102.201
-102.433
-102.456
-102.334
-102.184
-102.095
-102.139
-102.398
-102.917
-103.77
-105.072
-106.851
-109.14
-112.064
-115.673
-119.959
-124.911
-130.266
-135.588
-140.634
-145.164
-148.546
-150.199
-149.974
-147.76
-144.627
-143.016
-143.484
-145.617
-148.614
-148.401
-143.422
-136.068
-128.684
-127.817
-138.611
-157.508
-176.351
-181.098
-155.381
-91.467
8.754
136.47
277.147
415.954
543.543
651.616
731.093
777.19
783.266
744.282
663.121
541.79
386.935
212.268
31.819
-135.589
-271.28
-365.859
-419.268
-438.826
-436.453
-421.513
-395.179
-358.465
-314.16
-265.027
-219.691
-183.056
-153.341
-129.941
-109.559
-90.899
-77.385
-70.004
-68.72
-72.673
-78.636
-84.164
-87.984
-88.991
-87.052
-82.625
-76.133
-68.217
-59.704
-51.377
-43.991
-38.282
-34.534
-32.579
-32.139
-32.801
-34.14
-35.861
-37.626
-39.067
-40.007
-40.378
-40.157
-39.395
-38.077
-36.155
-33.653
-30.629
-27.165
-23.387
-19.383
-15.217
-10.981
-6.728
-2.493
1.694
5.846
9.987
14.125
18.268
22.408
26.528
30.632
34.738
38.875
43.098
47.451
51.972
56.709
61.692
66.941
72.473
78.282
84.352
90.672
97.229
104.013
111.019
118.234
125.639
133.215
140.934
148.77
156.691
164.663
172.649
180.611
188.515
196.325
204.01
211.534
218.861
225.956
232.782
239.3
245.474
251.267
256.64
261.558
265.987
269.896
273.256
276.041
278.226
279.792
280.719
280.995
280.608
279.549
277.813
275.4
272.311
268.553
264.133
259.065
253.365
247.051
240.147
232.677
224.671
216.158
207.172
197.747
187.921
177.731
167.217
156.422
145.388
134.158
122.778
111.292
99.745
88.181
76.645
65.178
53.823
42.62
31.607
20.822
10.3
0.074
-9.823
-19.363
-28.52
-37.268
-45.586
-53.456
-60.859
-67.784
-74.217
-80.152
-85.58
-90.499
-94.906
-98.803
-102.192
-105.079
-107.472
-109.379
-110.813
-111.787
-112.317
-112.419
-112.111
-111.414
-110.347
-108.932
-107.192
-105.148
-102.825
-100.245
-97.435
-94.417
-91.215
-87.855
-84.36
-80.752
-77.056
-73.292
-69.484
-65.65
-61.813
-57.99
-54.2
-50.461
-46.789
-43.199
-39.706
-36.323
-33.062
-29.933
-26.946
-24.109
-21.43
-18.913
-16.564
-14.387
-12.384
-10.557
-8.907
-7.434
-6.136
-5.011
-4.057
-3.269
-2.644
-2.176
-1.86
-1.691
-1.662
-1.766
-1.996
-2.346
-2.807
-3.371
-4.032
-4.781
-5.609
-6.51
-7.477
-8.5
-9.575
-10.693
-11.849
-13.037
-14.25
-15.484
-16.734
-17.995
-19.263
-20.535
-21.808
-23.079
-24.345
-25.604
-26.856
-28.097
-29.328
-30.548
-31.755
-32.949
-34.131
-35.299
-36.455
-37.6
-38.732
-39.854
-40.964
-42.065
-43.157
-44.238
-45.309
-46.369
-47.417
-48.452
-49.474
-50.48
-51.468
-52.436
-53.38
-54.298
-55.187
-56.042
-56.858
-57.631
-58.357
-59.031
-59.649
-60.206
-60.697
-61.118
-61.465
-61.733
-61.919
-62.019
-62.03
-61.948
-61.771
-61.498
-61.127
-60.658
-60.091
-59.431
-58.68
-57.844
-56.928
-55.939
-54.884
-53.771
-52.609
-51.404
-50.164
-48.897
-47.612
-46.32
-45.034
-43.764
-42.521
-41.317
-40.162
-39.067
-38.04
-37.085
-36.201
-35.395
-34.674
-34.054
-33.552
-33.173
-32.923
-32.808
-32.824
-32.967
-33.221
-33.552
-33.926
-34.314
-34.69
-35.044
-35.36
-35.609
-35.754
-35.749
-35.551
-35.138
-34.492
-33.583
-32.415
-31.019
-29.461
-27.85
-26.28
-24.818
-23.546
-22.537
-21.878
-21.671
-21.986
-22.918
-24.63
-27.219
-30.704
-35.012
-39.849
-44.825
-49.572
-53.553
-56.097
-56.727
-55.198
-51.606
-46.558
-40.933
-35.642
-31.837
-31.012
-33.389
-37.57
-42.03
-44.402
-45.098
-48.228
-53.989
-58.977
-53.665
-21.789
44.591
143.394
264.213
387.668
501.589
603.621
694.471
777.671
848.795
894.511
901.016
856.99
759.926
616.217
439.236
247.433
60.416
-101.179
-223.15
-301.072
-338.222
-346.194
-335.264
-309.359
-270.443
-218.725
-158.476
-100.768
-54.412
-24.261
-9.415
-1.86
3.939
9.996
15.759
17.181
12.821
4.095
-6.69
-16.09
-22.037
-24.33
-23.323
-19.75
-14.334
-7.602
-0.247
6.868
12.905
17.44
20.482
22.219
23.004
23.189
23.038
22.885
23.092
23.837
25.168
27.07
29.422
32.135
35.176
38.484
41.996
45.677
49.479
53.362
57.298
61.239
65.147
69.004
72.792
76.513
80.179
83.8
87.405
91.029
94.694
98.424
102.235
106.136
110.147
114.293
118.6
123.105
127.831
132.788
137.988
143.433
149.114
155.021
161.124
167.371
173.722
180.135
186.585
193.072
199.587
206.115
212.642
219.149
225.632
232.117
238.614
245.123
251.654
258.21
264.831
271.594
278.554
285.746
293.167
300.765
308.492
316.301
324.118
331.856
339.393
346.557
353.216
359.268
364.606
369.132
372.709
375.147
376.305
376.083
374.419
371.314
366.772
360.796
353.451
344.838
335.104
324.446
313.022
300.943
288.335
275.313
262.027
248.669
235.389
222.296
209.483
197.014
184.948
173.353
162.244
151.594
141.355
131.446
121.819
112.467
103.373
94.529
85.912
77.483
69.228
61.157
53.274
45.588
38.103
30.811
23.733
16.907
10.376
4.188
-1.628
-7.061
-12.103
-16.75
-21.004
-24.867
-28.354
-31.49
-34.298
-36.794
-38.996
-40.917
-42.579
-44.01
-45.236
-46.285
-47.181
-47.945
-48.598
-49.161
-49.652
-50.084
-50.471
-50.821
-51.147
-51.46
-51.772
-52.096
-52.441
-52.818
-53.235
-53.702
-54.226
-54.813
-55.468
-56.193
-56.993
-57.869
-58.824
-59.858
-60.973
-62.168
-63.444
-64.801
-66.237
-67.752
-69.345
-71.013
-72.755
-74.568
-76.452
-78.403
-80.419
-82.497
-84.636
-86.833
-89.085
-91.388
-93.739
-96.135
-98.573
-101.049
-103.558
-106.096
-108.659
-111.243
-113.843
-116.454
-119.073
-121.694
-124.311
-126.922
-129.521
-132.102
-134.661
-137.193
-139.693
-142.157
-144.58
-146.958
-149.286
-151.563
-153.784
-155.946
-158.048
-160.089
-162.065
-163.977
-165.823
-167.603
-169.318
-170.966
-172.551
-174.071
-175.53
-176.929
-178.271
-179.558
-180.795
-181.984
-183.129
-184.234
-185.302
-186.337
-187.342
-188.321
-189.277
-190.213
-191.134
-192.04
-192.934
-193.818
-194.691
-195.555
-196.408
-197.247
-198.072
-198.877
-199.66
-200.417
-201.143
-201.833
-202.481
-203.081
-203.628
-204.114
-204.534
-204.88
-205.145
-205.322
-205.406
-205.391
-205.271
-205.042
-204.7
-204.244
-203.673
-202.987
-202.187
-201.274
-200.253
-199.126
-197.899
-196.575
-195.161
-193.662
-192.087
-190.447
-188.754
-187.021
-185.262
-183.491
-181.724
-179.975
-178.258
-176.581
-174.954
-173.388
-171.896
-170.501
-169.225
-168.081
-167.085
-166.25
-165.581
-165.079
-164.732
-164.513
-164.395
-164.354
-164.371
-164.439
-164.546
-164.675
-164.797
-164.88
-164.891
-164.806
-164.605
-164.259
-163.767
-163.161
-162.513
-161.938
-161.542
-161.398
-161.573
-162.15
-163.215
-164.864
-167.181
-170.195
-173.983
-178.702
-184.441
-191.189
-198.757
-206.691
-214.471
-221.653
-227.673
-231.845
-233.683
-232.985
-230.033
-225.706
-221.118
-217.319
-215.448
-216.9
-221.642
-227.893
-233.653
-236.069
-235.404
-235.527
-236.19
-233.898
-218.749
-175.383
-98.307
9.408
136.228
263.871
383.094
490.469
584.587
663.778
718.11
734.469
701.961
616.715
483.437
313.103
122.137
-71.709
-249.102
-392.294
-491.216
-544.164
-558.856
-546.721
-516.121
-472.383
-417.59
-355.806
-296.206
-246.374
-210.797
-188.427
-171.645
-155.717
-139.962
-126.342
-119.736
-121.805
-130.811
-143.937
-157.45
-168.927
-177.285
-182.085
-183.553
-182.032
-178.008
-172.255
-165.575
-158.878
-153.095
-148.642
-145.574
-143.75
-142.813
-142.443
-142.391
-142.315
-141.863
-140.862
-139.264
-137.12
-134.574
-131.708
-128.561
-125.194
-121.666
-118.034
-114.349
-110.64
-106.923
-103.208
-99.504
-95.818
-92.154
-88.502
-84.85
-81.172
-77.44
-73.638
-69.753
-65.775
-61.694
-57.494
-53.154
-48.658
-43.988
-39.128
-34.064
-28.784
-23.273
-17.526
-11.538
-5.309
1.156
7.858
14.795
21.966
29.367
36.991
44.831
52.877
61.118
69.54
78.126
86.857
95.712
104.67
113.708
122.803
131.929
141.06
150.17
159.23
168.213
177.089
185.83
194.405
202.785
210.94
218.843
226.465
233.777
240.754
247.371
253.604
259.431
264.831
269.785
274.276
278.291
281.814
284.837
287.349
289.346
290.821
291.775
292.208
292.123
291.525
290.422
288.825
286.745
284.196
281.194
277.757
273.906
269.66
265.044
260.08
254.794
249.213
243.363
237.272
230.968
224.479
217.834
211.061
204.187
197.24
190.247
183.235
176.228
169.252
162.331
155.486
148.74
142.114
135.625
129.293
123.133
117.16
111.387
105.826
100.488
95.38
90.51
85.883
81.502
77.371
73.489
69.857
66.472
63.33
60.429
57.761
55.321
53.101
51.093
49.289
47.678
46.253
45.002
43.915
42.982
42.192
41.534
40.997
40.57
40.243
40.004
39.844
39.751
39.716
39.73
39.782
39.864
39.967
40.084
40.207
40.328
40.441
40.54
40.62
40.676
40.703
40.698
40.658
40.58
40.463
40.303
40.1
39.853
39.562
39.225
38.843
38.417
37.947
37.434
36.879
36.284
35.651
34.981
34.276
33.538
32.77
31.974
31.152
30.309
29.445
28.565
27.672
26.768
25.857
24.942
24.027
23.113
22.203
21.301
20.408
19.527
18.658
17.805
16.968
16.149
15.348
14.566
13.803
13.059
12.333
11.625
10.934
10.258
9.596
8.947
8.308
7.679
7.056
6.439
5.825
5.211
4.595
3.975
3.348
2.711
2.062
1.398
0.718
0.02
-0.699
-1.438
-2.199
-2.982
-3.786
-4.611
-5.456
-6.319
-7.197
-8.089
-8.989
-9.895
-10.8
-11.699
-12.587
-13.456
-14.3
-15.113
-15.886
-16.615
-17.29
-17.906
-18.455
-18.93
-19.324
-19.631
-19.842
-19.952
-19.957
-19.852
-19.633
-19.299
-18.848
-18.281
-17.599
-16.808
-15.909
-14.909
-13.816
-12.639
-11.39
-10.081
-8.721
-7.323
-5.898
-4.46
-3.024
-1.603
-0.208
1.148
2.453
3.691
4.845
5.905
6.869
7.734
8.498
9.155
9.687
10.08
10.327
10.419
10.349
10.109
9.693
9.103
8.369
7.524
6.599
5.616
4.569
3.446
2.251
1
-0.262
-1.486
-2.636
-3.686
-4.597
-5.323
-5.887
-6.385
-7.007
-8.021
-9.669
-12.119
-15.467
-19.775
-24.888
-30.493
-36.279
-41.767
-46.488
-50.074
-52.185
-52.62
-51.658
-49.841
-47.535
-45.28
-43.641
-43.261
-45.065
-49.734
-57.361
-67.709
-80.704
-96.34
-113.427
-129.118
-140.301
-143.933
-140.519
-134.456
-126.767
-115.288
-92.408
-45.098
32.731
139.205
265.858
397.763
522.365
632.216
721.824
785.239
817.425
813.423
768.663
686.094
569.938
423.186
255.608
77.959
-95.03
-241.009
-345.157
-403.278
-419.893
-410.372
-387.978
-356.652
-317.183
-268.772
-214.579
-163.977
-124.589
-98.968
-83.864
-73.257
-63.698
-55.341
-51.078
-52.952
-60.438
-71.266
-82.257
-91.23
-97.168
-99.847
-99.702
-97.176
-92.772
-87.216
-81.188
-75.426
-70.693
-67.289
-65.194
-64.243
-64.068
-64.354
-64.869
-65.313
-65.373
-64.898
-63.832
-62.212
-60.162
-57.753
-55.019
-52.012
-48.784
-45.387
-41.875
-38.286
-34.648
-30.978
-27.288
-23.583
-19.865
-16.123
-12.342
-8.496
-4.55
-0.482
3.724
8.083
12.604
17.304
22.204
27.323
32.679
38.285
44.15
50.282
56.689
63.369
70.317
77.521
84.965
92.636
100.518
108.594
116.846
125.252
133.785
142.42
151.129
159.879
168.637
177.364
186.023
194.574
202.978
211.195
219.185
226.907
234.323
241.392
248.078
254.343
260.15
265.467
270.261
274.501
278.161
281.216
283.645
285.427
286.55
287
286.771
285.857
284.259
281.978
279.021
275.399
271.126
266.217
260.695
254.581
247.904
240.693
232.981
224.803
216.196
207.198
197.851
188.194
178.271
168.125
157.799
147.335
136.777
126.168
115.55
104.963
94.447
84.039
73.778
63.696
53.826
44.198
34.84
25.776
17.03
8.62
0.565
-7.122
-14.428
-21.345
-27.865
-33.986
-39.705
-45.024
-49.947
-54.479
-58.629
-62.405
-65.819
-68.883
-71.613
-74.023
-76.13
-77.95
-79.502
-80.804
-81.876
-82.735
-83.401
-83.893
-84.23
-84.431
-84.512
-84.492
-84.387
-84.213
-83.985
-83.717
-83.423
-83.113
-82.8
-82.493
-82.202
-81.934
-81.695
-81.492
-81.328
-81.206
-81.13
-81.099
-81.116
-81.18
-81.291
-81.446
-81.644
-81.883
-82.159
-82.47
-82.811
-83.179
-83.57
-83.978
-84.401
-84.833
-85.27
-85.709
-86.143
-86.571
-86.987
-87.388
-87.77
-88.13
-88.465
-88.772
-89.05
-89.295
-89.508
-89.686
-89.831
-89.943
-90.02
-90.063
-90.071
-90.046
-89.988
-89.903
-89.788
-89.641
-89.472
-89.289
-89.099
-88.911
-88.721
-88.519
-88.319
-88.134
-87.941
-87.726
-87.476
-87.171
-86.835
-86.508
-86.173
-85.793
-85.472
-85.331
-85.3
-85.39
-85.623
-85.746
-86.448
-88.396
-90.637
-92.881
-93.373
-90.015
-85.127
-80.256
-77.707
-80.644
-86.262
-92.182
-96.773
-97.34
-95.803
-94.105
-92.675
-92.694
-93.465
-94.096
-94.748
-95.3
-95.803
-96.428
-97.049
-97.563
-97.993
-98.338
-98.577
-98.706
-98.723
-98.625
-98.422
-98.129
-97.731
-97.217
-96.586
-95.835
-94.963
-93.973
-92.863
-91.634
-90.293
-88.846
-87.3
-85.662
-83.941
-82.145
-80.284
-78.368
-76.406
-74.411
-72.394
-70.37
-68.356
-66.368
-64.421
-62.534
-60.721
-59.001
-57.388
-55.893
-54.525
-53.296
-52.22
-51.317
-50.606
-50.097
-49.796
-49.708
-49.83
-50.158
-50.674
-51.345
-52.137
-53.02
-53.971
-54.98
-56.03
-57.102
-58.161
-59.162
-60.074
-60.88
-61.565
-62.118
-62.531
-62.824
-63.063
-63.361
-63.818
-64.513
-65.499
-66.827
-68.573
-70.816
-73.633
-77.077
-81.183
-86.032
-91.675
-98.09
-105.159
-112.596
-119.981
-126.887
-132.846
-137.282
-139.743
-140.002
-138.059
-134.3
-129.429
-124.257
-119.714
-117.01
-116.523
-117.294
-118.034
-116.93
-113.876
-111.204
-109.915
-108.893
-102.098
-79.332
-32.699
42.155
141.945
258.098
382.459
505.281
619.116
714.804
779.304
803.096
778.948
708.205
600.027
462.861
306.804
139.344
-30.726
-187.415
-314.721
-398.851
-435.554
-433.823
-408.167
-373.424
-337.971
-302.658
-265.245
-223.728
-179.857
-137.935
-102.581
-77.332
-62.924
-58.075
-60.775
-68.613
-79.536
-91.856
-103.692
-113.377
-119.727
-122.253
-121.262
-117.455
-111.628
-104.574
-97.114
-90.081
-84.236
-79.948
-77.18
-75.684
-75.041
-74.882
-74.96
-74.991
-74.697
-73.932
-72.596
-70.7
-68.425
-65.787
-62.592
-58.86
-54.711
-50.147
-45.473
-40.217
-32.948
-24.089
-14.977
-7.887
-6.991
-11.858
-18.345
-22.268
-17.679
-4.412
11.995
27.279
36.761
39.818
40.632
41.718
44.867
50.548
57.068
63.705
70.514
77.446
84.759
92.498
100.425
108.462
116.634
124.923
133.302
141.762
150.294
158.897
167.585
176.343
185.123
193.888
202.605
211.239
219.757
228.12
236.286
244.218
251.88
259.238
266.255
272.897
279.128
284.913
290.221
295.021
299.283
302.981
306.089
308.585
310.45
311.666
312.22
312.102
311.304
309.821
307.653
304.803
301.278
297.086
292.242
286.761
280.664
273.974
266.718
258.926
250.629
241.862
232.66
223.062
213.108
202.837
192.29
181.511
170.542
159.425
148.203
136.92
125.617
114.337
103.118
92.002
81.026
70.226
59.638
49.292
39.222
29.454
20.016
10.931
2.22
-6.098
-14.008
-21.495
-28.551
-35.167
-41.338
-47.063
-52.341
-57.176
-61.572
-65.535
-69.075
-72.202
-74.928
-77.266
-79.232
-80.842
-82.112
-83.059
-83.704
-84.065
-84.16
-84.012
-83.639
-83.062
-82.3
-81.375
-80.307
-79.113
-77.815
-76.431
-74.978
-73.475
-71.936
-70.379
-68.816
-67.263
-65.73
-64.23
-62.772
-61.365
-60.019
-58.739
-57.532
-56.404
-55.358
-54.4
-53.531
-52.753
-52.07
-51.481
-50.988
-50.589
-50.286
-50.077
-49.96
-49.934
-49.996
-50.144
-50.374
-50.682
-51.065
-51.518
-52.036
-52.615
-53.25
-53.936
-54.667
-55.438
-56.244
-57.08
-57.941
-58.821
-59.716
-60.621
-61.531
-62.442
-63.349
-64.248
-65.136
-66.009
-66.863
-67.695
-68.501
-69.279
-70.025
-70.736
-71.409
-72.043
-72.635
-73.183
-73.686
-74.142
-74.551
-74.912
-75.226
-75.491
-75.709
-75.879
-76.003
-76.084
-76.122
-76.119
-76.08
-76.007
-75.903
-75.773
-75.621
-75.449
-75.262
-75.064
-74.857
-74.647
-74.434
-74.224
-74.02
-73.825
-73.644
-73.48
-73.336
-73.217
-73.125
-73.066
-73.041
-73.055
-73.108
-73.204
-73.344
-73.532
-73.77
-74.059
-74.399
-74.791
-75.235
-75.73
-76.275
-76.866
-77.496
-78.157
-78.842
-79.547
-80.268
-81
-81.737
-82.475
-83.21
-83.94
-84.663
-85.367
-86.043
-86.676
-87.251
-87.759
-88.185
-88.52
-88.755
-88.87
-88.85
-88.683
-88.347
-87.839
-87.155
-86.275
-85.191
-83.897
-82.372
-80.654
-78.796
-76.756
-74.531
-72.111
-69.441
-66.626
-63.792
-60.885
-57.875
-54.891
-51.985
-49.33
-47.144
-45.194
-43.225
-41.226
-39.098
-36.637
-33.71
-29.957
-25.012
-19.136
-12.622
-5.57
1.823
9.398
17.057
24.484
31.356
37.827
44.068
50.116
56.052
61.807
67.229
72.309
77.084
81.411
85.188
88.411
91.047
93.143
94.812
96.091
96.936
97.296
97.013
95.783
93.382
89.784
85.001
79.093
72.324
65.005
57.673
51.336
46.892
44.753
45.151
48.081
53.09
59.75
67.183
73.537
77.088
76.546
70.847
59.752
43.525
23.007
0.759
-19.69
-34.786
-42.672
-44.357
-40.31
-28.967
-5.178
39.836
111.117
207.826
323.417
446.218
566.547
677.658
774.233
851.594
902.146
917.721
891.435
818.925
701.71
545.44
361.596
169.076
-11.187
-158.538
-259.693
-315.726
-335.904
-333.762
-320.199
-296.227
-260.732
-214.376
-161.632
-112.761
-75.28
-50.637
-35.536
-24.194
-13.568
-4.424
0.336
-1.218
-8.663
-19.802
-31.345
-41.003
-47.69
-51.084
-51.645
-49.881
-46.208
-41.234
-35.67
-30.264
-25.817
-22.704
-20.89
-20.186
-20.232
-20.709
-21.387
-21.966
-22.129
-21.71
-20.656
-18.997
-16.868
-14.352
-11.487
-8.331
-4.937
-1.359
2.345
6.128
9.951
13.786
17.617
21.434
25.227
29.001
32.763
36.532
40.344
44.224
48.186
52.245
56.404
60.678
65.091
69.663
74.413
79.354
84.491
89.834
95.4
101.199
107.239
113.512
119.988
126.65
133.485
140.475
147.603
154.84
162.147
169.502
176.903
184.34
191.81
199.286
206.722
214.075
221.301
228.372
235.284
242.017
248.534
254.814
260.846
266.626
272.173
277.454
282.383
286.885
290.887
294.339
297.23
299.536
301.225
302.263
302.601
302.214
301.101
299.235
296.57
293.06
288.634
283.297
277.133
270.21
262.593
254.334
245.452
235.989
226.013
215.575
204.727
193.513
181.958
170.121
158.089
145.952
133.813
121.723
109.672
97.67
85.734
73.886
62.168
50.604
39.199
27.975
16.975
6.235
-4.199
-14.305
-24.084
-33.537
-42.668
-51.464
-59.887
-67.912
-75.526
-82.712
-89.465
-95.775
-101.624
-107.01
-111.95
-116.459
-120.554
-124.247
-127.544
-130.456
-132.997
-135.184
-137.038
-138.581
-139.829
-140.806
-141.534
-142.035
-142.337
-142.458
-142.417
-142.23
-141.916
-141.491
-140.974
-140.383
-139.731
-139.035
-138.308
-137.567
-136.825
-136.093
-135.382
-134.702
-134.062
-133.469
-132.932
-132.455
-132.044
-131.704
-131.437
-131.248
-131.138
-131.108
-131.159
-131.291
-131.503
-131.796
-132.166
-132.614
-133.136
-133.73
-134.394
-135.126
-135.922
-136.779
-137.695
-138.666
-139.689
-140.76
-141.877
-143.036
-144.233
-145.466
-146.731
-148.024
-149.344
-150.686
-152.049
-153.429
-154.823
-156.23
-157.646
-159.069
-160.498
-161.929
-163.362
-164.793
-166.22
-167.643
-169.058
-170.464
-171.859
-173.241
-174.608
-175.958
-177.29
-178.603
-179.895
-181.164
-182.409
-183.629
-184.822
-185.987
-187.123
-188.227
-189.299
-190.337
-191.34
-192.306
-193.235
-194.124
-194.973
-195.781
-196.546
-197.266
-197.942
-198.573
-199.157
-199.695
-200.187
-200.633
-201.033
-201.388
-201.699
-201.968
-202.195
-202.382
-202.53
-202.64
-202.716
-202.758
-202.768
-202.749
-202.703
-202.632
-202.539
-202.427
-202.297
-202.153
-201.997
-201.831
-201.658
-201.481
-201.301
-201.121
-200.942
-200.766
-200.596
-200.43
-200.27
-200.116
-199.964
-199.816
-199.67
-199.523
-199.373
-199.217
-199.051
-198.873
-198.68
-198.466
-198.224
-197.95
-197.636
-197.279
-196.874
-196.414
-195.894
-195.31
-194.658
-193.936
-193.146
-192.282
-191.34
-190.32
-189.216
-188.038
-186.796
-185.494
-184.137
-182.736
-181.297
-179.835
-178.37
-176.898
-175.423
-173.948
-172.471
-171.013
-169.59
-168.213
-166.901
-165.651
-164.45
-163.313
-162.246
-161.242
-160.311
-159.44
-158.608
-157.849
-157.191
-156.646
-156.239
-155.949
-155.743
-155.611
-155.534
-155.51
-155.549
-155.621
-155.704
-155.801
-155.9
-156.037
-156.245
-156.47
-156.66
-156.781
-156.815
-156.855
-156.996
-157.245
-157.678
-158.393
-159.559
-161.523
-164.476
-168.373
-173.199
-178.92
-185.405
-192.559
-199.943
-206.626
-211.975
-215.66
-217.405
-217.156
-214.89
-210.608
-204.954
-199.338
-195.099
-193.283
-194.727
-200.061
-208.855
-219.564
-230.537
-238.944
-244.569
-250.513
-256.067
-258.121
-248.378
-212.372
-143.929
-45.6
73.616
196.692
313.419
422.125
521.633
613.109
691.366
743.532
760.673
736.226
668.799
564.522
427.642
265.078
88.744
-87.154
-243.011
-362.556
-438.189
-471.402
-471.16
-446.316
-405.161
-352.898
-294.991
-240.828
-195.76
-162.708
-140.164
-120.415
-99.878
-78.303
-57.553
-42.832
-35.821
-35.188
-39.197
-44.581
-49.256
-52.522
-53.544
-52.236
-49.021
-44.222
-38.303
-31.895
-25.459
-19.462
-14.517
-10.852
-8.329
-6.726
-5.706
-4.949
-4.263
-3.425
-2.119
-0.169
2.502
5.952
10.11
14.901
20.262
26.06
32.161
38.467
44.875
51.293
57.679
63.998
70.233
76.407
82.519
88.562
94.531
100.403
106.172
111.85
117.456
123.028
128.6
134.2
139.866
145.636
151.538
157.592
163.8
170.153
176.646
183.278
190.045
196.947
203.979
211.132
218.397
225.76
233.206
240.719
248.277
255.855
263.429
270.974
278.466
285.883
293.201
300.393
307.43
314.285
320.929
327.333
333.465
339.295
344.791
349.924
354.667
358.992
362.874
366.289
369.217
371.636
373.53
374.884
375.685
375.923
375.59
374.683
373.2
371.141
368.511
365.318
361.57
357.281
352.467
347.147
341.34
335.07
328.363
321.246
313.749
305.902
297.739
289.293
280.6
271.695
262.617
253.4
244.083
234.703
225.295
215.895
206.538
197.257
188.084
179.051
170.186
161.517
153.07
144.868
136.934
129.286
121.943
114.918
108.225
101.875
95.877
90.235
84.956
80.041
75.49
71.302
67.473
63.996
60.866
58.073
55.606
53.455
51.607
50.048
48.764
47.738
46.957
46.402
46.059
45.909
45.936
46.124
46.455
46.913
47.483
48.149
48.896
49.709
50.575
51.481
52.414
53.363
54.316
55.264
56.197
57.106
57.983
58.822
59.616
60.36
61.049
61.678
62.245
62.747
63.181
63.545
63.839
64.061
64.212
64.291
64.3
64.238
64.108
63.911
63.647
63.32
62.93
62.48
61.972
61.407
60.788
60.117
59.396
58.627
57.813
56.955
56.057
55.119
54.145
53.136
52.093
51.02
49.918
48.788
47.633
46.454
45.254
44.033
42.794
41.538
40.267
38.981
37.683
36.373
35.052
33.722
32.383
31.036
29.682
28.323
26.958
25.59
24.217
22.842
21.464
20.084
18.702
17.319
15.935
14.55
13.164
11.778
10.391
9.004
7.617
6.229
4.84
3.45
2.058
0.663
-0.735
-2.136
-3.542
-4.953
-6.368
-7.79
-9.217
-10.651
-12.091
-13.539
-14.993
-16.454
-17.923
-19.4
-20.884
-22.376
-23.874
-25.378
-26.888
-28.401
-29.918
-31.435
-32.953
-34.469
-35.981
-37.488
-38.988
-40.477
-41.952
-43.411
-44.849
-46.263
-47.647
-48.998
-50.311
-51.581
-52.805
-53.976
-55.09
-56.142
-57.129
-58.044
-58.883
-59.642
-60.314
-60.895
-61.384
-61.775
-62.067
-62.257
-62.345
-62.334
-62.224
-62.018
-61.719
-61.328
-60.85
-60.292
-59.658
-58.954
-58.185
-57.356
-56.475
-55.549
-54.59
-53.603
-52.594
-51.566
-50.527
-49.485
-48.451
-47.425
-46.408
-45.401
-44.407
-43.442
-42.52
-41.646
-40.823
-40.055
-39.342
-38.688
-38.091
-37.529
-36.981
-36.421
-35.819
-35.167
-34.461
-33.686
-32.841
-31.907
-30.848
-29.65
-28.294
-26.75
-25.039
-23.189
-21.21
-19.202
-17.318
-15.737
-14.764
-14.668
-15.521
-17.369
-20.25
-24.055
-28.656
-33.763
-38.683
-42.733
-45.558
-46.936
-46.806
-45.294
-42.446
-38.605
-34.772
-32.097
-31.596
-34.13
-40.144
-50.014
-63.412
-78.43
-92.771
-103.833
-110.976
-117.261
-124.244
-129.8
-126.873
-102.362
-46.241
42.56
157.215
284.033
410.211
528.874
637.072
732.024
806.604
850.744
853.582
808.652
718.69
590.7
435.355
265.594
93.344
-67.12
-200.923
-297.797
-355.093
-378.048
-377.359
-362.649
-336.814
-300.432
-254.885
-204.855
-159.946
-127.105
-106.921
-94.589
-83.078
-68.505
-51.91
-37.798
-29.464
-27.344
-30.137
-35.169
-40.982
-47.696
-55.015
-62.331
-69.101
-74.605
-78.436
-80.713
-81.237
-79.446
-75.398
-69.64
-62.777
-55.641
-48.773
-42.262
-36.444
-31.877
-28.728
-26.869
-25.948
-25.291
-24.498
-23.495
-22.113
-20.154
-17.534
-14.218
-10.357
-6.3
-2.24
1.787
5.756
9.706
13.65
17.558
21.462
25.446
29.558
33.822
38.239
42.776
47.426
52.204
57.126
62.218
67.491
72.95
78.599
84.441
90.476
96.705
103.121
109.712
116.466
123.372
130.421
137.601
144.898
152.292
159.759
167.271
174.8
182.314
189.783
197.172
204.448
211.574
218.515
225.237
231.704
237.879
243.729
249.219
254.314
258.982
263.193
266.917
270.128
272.8
274.912
276.443
277.376
277.697
277.395
276.463
274.895
272.692
269.854
266.389
262.305
257.614
252.333
246.48
240.077
233.15
225.725
217.835
209.51
200.786
191.699
182.287
172.589
162.644
152.495
142.181
131.745
121.228
110.672
100.118
89.604
79.17
68.854
58.69
48.715
38.959
29.452
20.224
11.299
2.702
-5.548
-13.432
-20.935
-28.042
-34.745
-41.035
-46.907
-52.358
-57.388
-61.998
-66.191
-69.974
-73.353
-76.34
-78.943
-81.177
-83.054
-84.591
-85.804
-86.709
-87.326
-87.672
-87.766
-87.629
-87.278
-86.735
-86.018
-85.147
-84.139
-83.015
-81.792
-80.487
-79.117
-77.697
-76.242
-74.766
-73.282
-71.802
-70.337
-68.898
-67.493
-66.132
-64.823
-63.572
-62.386
-61.27
-60.229
-59.268
-58.389
-57.594
-56.887
-56.268
-55.737
-55.296
-54.943
-54.677
-54.499
-54.405
-54.394
-54.462
-54.608
-54.829
-55.119
-55.477
-55.899
-56.381
-56.919
-57.51
-58.151
-58.839
-59.568
-60.337
-61.142
-61.978
-62.843
-63.732
-64.641
-65.568
-66.507
-67.456
-68.41
-69.367
-70.324
-71.276
-72.221
-73.156
-74.079
-74.988
-75.881
-76.757
-77.614
-78.452
-79.271
-80.072
-80.855
-81.62
-82.369
-83.104
-83.824
-84.533
-85.232
-85.921
-86.604
-87.281
-87.954
-88.625
-89.297
-89.97
-90.648
-91.332
-92.025
-92.729
-93.444
-94.175
-94.92
-95.683
-96.464
-97.263
-98.08
-98.914
-99.764
-100.629
-101.506
-102.391
-103.283
-104.174
-105.062
-105.94
-106.802
-107.641
-108.451
-109.224
-109.953
-110.633
-111.256
-111.814
-112.302
-112.712
-113.039
-113.276
-113.418
-113.458
-113.392
-113.215
-112.926
-112.52
-111.997
-111.355
-110.594
-109.718
-108.732
-107.642
-106.454
-105.18
-103.829
-102.416
-100.953
-99.452
-97.922
-96.376
-94.824
-93.281
-91.757
-90.265
-88.818
-87.426
-86.101
-84.854
-83.684
-82.588
-81.56
-80.596
-79.695
-78.872
-78.136
-77.495
-76.963
-76.553
-76.276
-76.139
-76.127
-76.213
-76.376
-76.603
-76.907
-77.309
-77.804
-78.384
-79.03
-79.695
-80.357
-80.969
-81.425
-81.683
-81.794
-81.874
-82.174
-82.946
-84.296
-86.387
-89.432
-93.364
-97.934
-102.649
-106.707
-109.552
-110.925
-110.432
-107.67
-102.674
-95.801
-87.933
-80.408
-74.079
-69.466
-67.445
-69.016
-74.766
-84.987
-99.326
-116.869
-137.319
-159.327
-179.495
-194.629
-201.794
-201.577
-198.891
-194.963
-186.866
-165.969
-118.54
-38.882
69.905
198.367
331.108
456.341
567.614
658.859
723.876
756.885
750.788
701.766
612.753
488.18
336.589
170.389
2.122
-152.695
-279.777
-371.235
-426.699
-452.496
-457.718
-448.874
-426.53
-390.265
-342.343
-289.095
-240.979
-205.246
-182.329
-167.226
-153.229
-136.884
-119.377
-105.028
-96.78
-94.717
-97.246
-101.504
-105.657
-109.264
-111.923
-113.362
-113.632
-112.826
-111.145
-109.031
-106.789
-104.552
-102.65
-101.486
-101.142
-101.522
-102.459
-103.665
-104.954
-106.221
-107.245
-107.734
-107.497
-106.444
-104.594
-102.062
-98.962
-95.401
-91.499
-87.38
-83.163
-78.941
-74.764
-70.636
-66.543
-62.467
-58.406
-54.375
-50.394
-46.471
-42.593
-38.739
-34.876
-30.958
-26.944
-22.791
-18.45
-13.884
-9.069
-3.989
1.353
6.949
12.796
18.895
25.242
31.837
38.671
45.732
53.006
60.474
68.115
75.905
83.812
91.808
99.861
107.942
116.02
124.066
132.046
139.926
147.67
155.242
162.601
169.71
176.529
183.017
189.136
194.848
200.116
204.907
209.188
212.927
216.098
218.675
220.635
221.958
222.63
222.637
221.97
220.625
218.6
215.897
212.522
208.486
203.804
198.491
192.571
186.067
179.009
171.429
163.36
154.841
145.911
136.613
126.992
117.093
106.965
96.656
86.218
75.7
65.152
54.626
44.171
33.835
23.666
13.71
4.01
-5.392
-14.456
-23.146
-31.428
-39.271
-46.649
-53.536
-59.913
-65.761
-71.067
-75.82
-80.013
-83.643
-86.71
-89.217
-91.17
-92.58
-93.459
-93.822
-93.687
-93.075
-92.009
-90.513
-88.615
-86.342
-83.724
-80.791
-77.577
-74.111
-70.428
-66.558
-62.535
-58.391
-54.155
-49.858
-45.53
-41.197
-36.886
-32.623
-28.429
-24.328
-20.338
-16.477
-12.762
-9.206
-5.822
-2.62
0.392
3.207
5.821
8.23
10.433
12.43
14.222
15.813
17.207
18.409
19.427
20.268
20.94
21.452
21.814
22.037
22.13
22.104
21.97
21.738
21.418
21.021
20.556
20.032
19.459
18.843
18.194
17.517
16.819
16.105
15.38
14.65
13.916
13.183
12.452
11.726
11.006
10.292
9.585
8.883
8.186
7.493
6.8
6.106
5.407
4.701
3.984
3.252
2.501
1.727
0.927
0.094
-0.774
-1.683
-2.635
-3.636
-4.689
-5.797
-6.963
-8.189
-9.477
-10.83
-12.248
-13.733
-15.285
-16.905
-18.593
-20.349
-22.17
-24.057
-26.007
-28.016
-30.082
-32.201
-34.367
-36.575
-38.821
-41.098
-43.399
-45.717
-48.044
-50.371
-52.69
-54.991
-57.264
-59.498
-61.682
-63.807
-65.862
-67.838
-69.723
-71.51
-73.189
-74.752
-76.192
-77.5
-78.668
-79.69
-80.56
-81.273
-81.825
-82.213
-82.437
-82.498
-82.4
-82.148
-81.748
-81.206
-80.53
-79.731
-78.821
-77.812
-76.715
-75.541
-74.304
-73.021
-71.71
-70.385
-69.06
-67.746
-66.456
-65.206
-64.013
-62.887
-61.828
-60.843
-59.936
-59.118
-58.409
-57.822
-57.364
-57.045
-56.872
-56.856
-57.007
-57.321
-57.776
-58.347
-59.002
-59.72
-60.5
-61.335
-62.223
-63.154
-64.087
-64.988
-65.835
-66.59
-67.234
-67.755
-68.106
-68.316
-68.531
-68.949
-69.858
-71.534
-74.113
-77.664
-82.272
-87.865
-94.177
-100.75
-106.815
-111.556
-114.396
-115.006
-113.178
-108.984
-102.872
-95.619
-88.507
-83.111
-80.957
-83.215
-90.791
-104.347
-122.879
-144.044
-165.588
-184.299
-199.442
-213.418
-224.748
-229.763
-220.705
-184.357
-115.518
-17.137
101.944
225.235
342.466
451.062
549.333
638.751
715.143
766.767
784.756
760.719
690.495
579.011
430.858
253.973
62.327
-129.191
-300.317
-429.845
-504.869
-522.005
-488.114
-419.227
-332.753
-242.73
-161.095
-95.186
-48.639
-22.087
-11.088
-8.774
-8.086
-5.218
-0.584
3.285
3.4
-0.322
-5.538
-9.478
-9.843
-6.372
-0.108
7.812
16.193
24.134
30.875
35.553
37.75
37.589
35.449
31.871
27.393
22.391
17.24
12.394
8.148
4.668
2.073
0.355
-0.515
-0.518
0.327
1.95
4.286
7.215
10.563
14.21
18.046
21.986
26.001
30.049
34.087
38.092
42.038
45.913
49.724
53.466
57.129
60.725
64.277
67.835
71.481
75.276
79.265
83.48
87.937
92.648
97.627
102.871
108.364
114.093
120.045
126.211
132.587
139.162
145.917
152.829
159.866
166.999
174.201
181.441
188.689
195.914
203.084
210.172
217.152
223.997
230.674
237.152
243.396
249.371
255.044
260.382
265.348
269.912
274.041
277.707
280.885
283.55
285.679
287.253
288.254
288.669
288.484
287.692
286.285
284.261
281.619
278.363
274.499
270.037
264.989
259.37
253.198
246.495
239.284
231.591
223.441
214.866
205.897
196.567
186.91
176.964
166.766
156.354
145.768
135.048
124.231
113.359
102.468
91.596
80.78
70.055
59.455
49.011
38.755
28.716
18.92
9.392
0.154
-8.773
-17.372
-25.627
-33.525
-41.056
-48.21
-54.983
-61.37
-67.37
-72.982
-78.21
-83.057
-87.53
-91.637
-95.389
-98.797
-101.874
-104.634
-107.092
-109.266
-111.171
-112.826
-114.249
-115.457
-116.469
-117.303
-117.977
-118.509
-118.916
-119.215
-119.422
-119.551
-119.618
-119.635
-119.615
-119.57
-119.509
-119.443
-119.378
-119.323
-119.284
-119.265
-119.27
-119.302
-119.363
-119.454
-119.574
-119.721
-119.896
-120.093
-120.311
-120.545
-120.791
-121.045
-121.3
-121.553
-121.798
-122.03
-122.242
-122.432
-122.592
-122.72
-122.81
-122.858
-122.861
-122.816
-122.719
-122.568
-122.362
-122.099
-121.778
-121.399
-120.961
-120.464
-119.91
-119.298
-118.631
-117.91
-117.137
-116.314
-115.443
-114.528
-113.57
-112.573
-111.539
-110.47
-109.369
-108.239
-107.08
-105.895
-104.686
-103.454
-102.199
-100.922
-99.625
-98.307
-96.968
-95.607
-94.223
-92.815
-91.382
-89.923
-88.434
-86.915
-85.362
-83.775
-82.152
-80.489
-78.786
-77.04
-75.249
-73.412
-71.526
-69.59
-67.601
-65.559
-63.463
-61.312
-59.106
-56.845
-54.529
-52.159
-49.736
-47.262
-44.737
-42.163
-39.541
-36.874
-34.164
-31.414
-28.627
-25.806
-22.956
-20.079
-17.18
-14.264
-11.336
-8.4
-5.459
-2.518
0.415
3.337
6.241
9.12
11.966
14.771
17.524
20.215
22.834
25.371
27.818
30.163
32.4
34.518
36.509
38.365
40.074
41.628
43.012
44.217
45.231
46.046
46.654
47.051
47.231
47.197
46.946
46.475
45.778
44.844
43.665
42.244
40.579
38.675
36.544
34.201
31.675
29.01
26.242
23.402
20.514
17.595
14.669
11.778
8.959
6.251
3.674
1.228
-1.079
-3.212
-5.164
-6.956
-8.669
-10.446
-12.385
-14.513
-16.898
-19.688
-23.141
-27.538
-33.009
-39.494
-46.923
-55.332
-64.686
-74.697
-84.652
-93.626
-100.929
-106.269
-109.563
-110.601
-109.239
-105.832
-101.496
-97.739
-95.966
-97.071
-101.344
-109.291
-120.571
-133.046
-144.078
-150.526
-151.031
-147.503
-140.223
-126.505
-99.981
-50.661
26.474
129.172
249.752
376.511
500.833
618.083
723.469
809.279
863.845
874.093
830.935
734.536
592.256
416.538
223.4
28.496
-151.32
-300.165
-408.143
-472.56
-499.007
-497.315
-476.417
-442.331
-399.031
-351.694
-305.842
-266.075
-233.687
-204.865
-176.098
-146.618
-118.633
-97.394
-86.161
-84.615
-90.684
-101.066
-112.893
-124.575
-134.782
-142.357
-146.826
-148.21
-146.861
-143.446
-138.783
-133.654
-128.887
-125.269
-123.088
-122.238
-122.445
-123.327
-124.53
-125.742
-126.585
-126.644
-125.662
-123.569
-120.394
-116.235
-111.193
-105.341
-98.802
-91.765
-84.394
-76.81
-69.113
-61.34
-53.517
-45.691
-37.896
-30.156
-22.513
-14.984
-7.572
-0.292
6.855
13.884
20.817
27.703
34.596
41.531
48.539
55.637
62.825
70.111
77.501
84.988
92.582
100.286
108.087
115.977
123.938
131.934
139.936
147.904
155.786
163.544
171.155
178.602
185.895
193.045
200.048
206.89
213.539
219.962
226.147
232.088
237.782
243.248
248.498
253.552
258.462
263.252
267.907
272.387
276.6
280.429
283.798
286.65
288.942
290.652
291.729
292.122
291.797
290.696
288.763
285.931
282.09
277.162
271.139
264.049
255.991
247.105
237.493
227.243
216.442
205.157
193.469
181.462
169.19
156.725
144.151
131.572
119.131
106.955
95.117
83.658
72.573
61.821
51.391
41.277
31.465
21.962
12.773
3.907
-4.602
-12.721
-20.438
-27.752
-34.69
-41.277
-47.515
-53.397
-58.9
-63.989
-68.642
-72.844
-76.574
-79.823
-82.594
-84.896
-86.752
-88.196
-89.253
-89.945
-90.291
-90.308
-90.018
-89.449
-88.628
-87.587
-86.356
-84.967
-83.452
-81.844
-80.171
-78.458
-76.727
-74.995
-73.281
-71.604
-69.98
-68.424
-66.953
-65.579
-64.316
-63.177
-62.171
-61.305
-60.583
-60.009
-59.584
-59.307
-59.175
-59.184
-59.33
-59.605
-60.002
-60.512
-61.125
-61.831
-62.618
-63.475
-64.387
-65.342
-66.325
-67.324
-68.323
-69.309
-70.269
-71.189
-72.057
-72.86
-73.585
-74.222
-74.761
-75.19
-75.5
-75.682
-75.729
-75.635
-75.393
-75.001
-74.455
-73.753
-72.897
-71.887
-70.726
-69.417
-67.963
-66.372
-64.65
-62.803
-60.841
-58.774
-56.613
-54.367
-52.05
-49.674
-47.253
-44.799
-42.328
-39.852
-37.386
-34.945
-32.542
-30.193
-27.91
-25.708
-23.599
-21.597
-19.712
-17.958
-16.342
-14.875
-13.563
-12.414
-11.433
-10.624
-9.989
-9.53
-9.246
-9.137
-9.2
-9.43
-9.823
-10.372
-11.069
-11.904
-12.868
-13.949
-15.134
-16.409
-17.762
-19.176
-20.639
-22.133
-23.642
-25.151
-26.644
-28.104
-29.517
-30.866
-32.136
-33.314
-34.387
-35.345
-36.178
-36.877
-37.437
-37.855
-38.13
-38.262
-38.251
-38.1
-37.814
-37.4
-36.867
-36.224
-35.48
-34.646
-33.734
-32.763
-31.749
-30.71
-29.659
-28.612
-27.584
-26.596
-25.668
-24.813
-24.042
-23.369
-22.806
-22.377
-22.104
-22.001
-22.076
-22.335
-22.776
-23.398
-24.195
-25.142
-26.213
-27.385
-28.627
-29.926
-31.271
-32.643
-34.031
-35.411
-36.751
-38.025
-39.205
-40.262
-41.209
-42.096
-42.975
-43.905
-44.971
-46.307
-48.141
-50.708
-54.134
-58.391
-63.378
-69.12
-75.666
-82.862
-90.304
-97.401
-103.614
-108.781
-112.999
-116.077
-117.693
-117.774
-116.569
-114.873
-113.787
-113.847
-115.065
-117.813
-122.594
-129.669
-139.23
-149.647
-157.341
-159.678
-154.381
-140.958
-122.445
-99.709
-71.663
-35.467
17.402
93.128
193.323
316.984
452.465
583.896
696.387
771.839
801.094
784.245
723.43
629.078
509.905
367.664
207.797
36.88
-133.365
-282.08
-392.753
-457.875
-479.609
-470.015
-440.677
-398.675
-348.043
-292.183
-238.106
-192.826
-160.657
-141.084
-127.816
-116.382
-105.19
-95.136
-90.094
-91.13
-96.682
-104.443
-110.932
-114.016
-113.38
-109.204
-102.209
-93.312
-83.25
-72.919
-63.371
-55.571
-50.04
-46.846
-45.796
-46.45
-48.309
-50.928
-53.818
-56.5
-58.709
-60.337
-61.325
-61.699
-61.457
-60.524
-58.891
-56.575
-53.57
-49.909
-45.645
-40.847
-35.655
-30.216
-24.62
-18.938
-13.199
-7.407
-1.576
4.289
10.199
16.147
22.128
28.139
34.167
40.218
46.316
52.5
58.832
65.38
72.193
79.305
86.734
94.475
102.519
110.836
119.377
128.096
136.946
145.891
154.91
163.991
173.129
182.32
191.556
200.815
210.057
219.249
228.357
237.361
246.246
255.019
263.701
272.328
280.941
289.56
298.172
306.732
315.155
323.342
331.169
338.539
345.377
351.618
357.204
362.075
366.175
369.43
371.753
373.044
373.18
372.076
369.678
365.989
361.061
354.984
347.885
339.878
331.057
321.51
311.31
300.526
289.228
277.495
265.411
253.086
240.658
228.243
215.94
203.812
191.881
180.143
168.563
157.115
145.784
134.565
123.471
112.523
101.748
91.172
80.828
70.726
60.862
51.232
41.835
32.682
23.802
15.233
7.025
-0.779
-8.137
-15.021
-21.412
-27.3
-32.685
-37.574
-41.983
-45.922
-49.399
-52.422
-54.998
-57.138
-58.86
-60.185
-61.135
-61.736
-62.016
-62.001
-61.718
-61.19
-60.44
-59.488
-58.351
-57.05
-55.604
-54.033
-52.358
-50.601
-48.782
-46.922
-45.041
-43.158
-41.291
-39.456
-37.667
-35.937
-34.278
-32.703
-31.219
-29.837
-28.563
-27.405
-26.367
-25.454
-24.67
-24.016
-23.493
-23.103
-22.845
-22.716
-22.715
-22.84
-23.086
-23.45
-23.928
-24.516
-25.208
-25.999
-26.884
-27.855
-28.906
-30.03
-31.219
-32.467
-33.766
-35.11
-36.491
-37.905
-39.344
-40.804
-42.28
-43.767
-45.26
-46.755
-48.249
-49.738
-51.22
-52.692
-54.152
-55.6
-57.034
-58.453
-59.857
-61.246
-62.618
-63.976
-65.318
-66.646
-67.959
-69.26
-70.548
-71.825
-73.093
-74.353
-75.607
-76.855
-78.099
-79.339
-80.576
-81.809
-83.038
-84.263
-85.482
-86.693
-87.896
-89.087
-90.265
-91.425
-92.564
-93.677
-94.761
-95.81
-96.817
-97.778
-98.687
-99.538
-100.325
-101.043
-101.686
-102.248
-102.725
-103.111
-103.402
-103.592
-103.677
-103.654
-103.519
-103.27
-102.906
-102.425
-101.829
-101.123
-100.309
-99.394
-98.384
-97.286
-96.107
-94.858
-93.546
-92.179
-90.764
-89.31
-87.829
-86.335
-84.84
-83.357
-81.899
-80.479
-79.108
-77.801
-76.567
-75.407
-74.328
-73.335
-72.444
-71.677
-71.056
-70.59
-70.291
-70.166
-70.214
-70.436
-70.814
-71.314
-71.904
-72.552
-73.232
-73.937
-74.648
-75.334
-75.96
-76.473
-76.826
-76.998
-76.96
-76.697
-76.222
-75.567
-74.796
-74.02
-73.34
-72.858
-72.689
-72.926
-73.667
-75
-77.009
-79.833
-83.591
-88.312
-93.903
-100.115
-106.61
-113.062
-119.094
-124.168
-127.787
-129.625
-129.741
-128.7
-127.172
-125.88
-125.644
-127.255
-131.634
-138.751
-146.575
-152.427
-153.662
-149.446
-142.709
-135.666
-126.665
-110.167
-75.211
-11.75
81.569
199.922
332.228
462.82
581.561
680.192
749.292
784.752
780.557
731.48
640.26
509.561
346.995
166.997
-15.225
-180.578
-312.075
-400.39
-444.821
-452.297
-431.814
-393.648
-344.548
-290.636
-241.139
-200.384
-170.967
-151.486
-134.064
-115.387
-95.356
-76.003
-63.09
-58.503
-60.862
-68.476
-77.98
-87.158
-95.21
-100.998
-104.12
-104.794
-103.157
-99.575
-94.662
-88.936
-83.064
-77.94
-73.993
-71.251
-69.586
-68.671
-68.213
-68.035
-67.862
-67.339
-66.282
-64.624
-62.395
-59.732
-56.718
-53.381
-49.775
-45.957
-41.98
-37.897
-33.742
-29.531
-25.276
-20.986
-16.667
-12.323
-7.949
-3.532
0.951
5.53
10.223
15.042
19.998
25.096
30.349
35.773
41.381
47.184
53.189
59.403
65.829
72.472
79.329
86.393
93.653
101.094
108.702
116.464
124.364
132.386
140.511
148.715
156.976
165.269
173.568
181.843
190.061
198.191
206.199
214.052
221.718
229.163
236.353
243.255
249.838
256.069
261.917
267.353
272.349
276.878
280.916
284.439
287.428
289.865
291.734
293.023
293.722
293.825
293.327
292.227
290.527
288.232
285.35
281.892
277.872
273.306
268.215
262.621
256.548
250.023
243.076
235.738
228.042
220.021
211.711
203.148
194.37
185.413
176.317
167.118
157.855
148.564
139.282
130.045
120.887
111.841
102.939
94.211
85.686
77.389
69.346
61.579
54.109
46.954
40.131
33.653
27.532
21.777
16.396
11.393
6.772
2.533
-1.326
-4.807
-7.916
-10.66
-13.047
-15.088
-16.795
-18.18
-19.258
-20.045
-20.556
-20.81
-20.822
-20.612
-20.198
-19.598
-18.832
-17.917
-16.874
-15.72
-14.474
-13.154
-11.777
-10.36
-8.92
-7.472
-6.031
-4.613
-3.23
-1.896
-0.622
0.58
1.7
2.728
3.656
4.476
5.181
5.765
6.223
6.551
6.746
6.806
6.728
6.511
6.157
5.664
5.034
4.269
3.372
2.344
1.19
-0.086
-1.482
-2.991
-4.61
-6.333
-8.154
-10.068
-12.069
-14.152
-16.309
-18.534
-20.821
-23.164
-25.555
-27.989
-30.459
-32.958
-35.479
-38.017
-40.565
-43.116
-45.665
-48.206
-50.734
-53.243
-55.729
-58.187
-60.613
-63.003
-65.355
-67.664
-69.927
-72.143
-74.31
-76.425
-78.487
-80.495
-82.448
-84.347
-86.19
-87.978
-89.711
-91.39
-93.016
-94.588
-96.109
-97.58
-99.003
-100.378
-101.708
-102.995
-104.241
-105.45
-106.622
-107.759
-108.865
-109.94
-110.987
-112.005
-112.997
-113.962
-114.9
-115.813
-116.699
-117.559
-118.391
-119.194
-119.965
-120.704
-121.407
-122.071
-122.694
-123.272
-123.801
-124.278
-124.702
-125.067
-125.369
-125.607
-125.776
-125.874
-125.897
-125.843
-125.708
-125.491
-125.19
-124.804
-124.334
-123.78
-123.142
-122.426
-121.637
-120.778
-119.858
-118.883
-117.862
-116.803
-115.715
-114.608
-113.488
-112.366
-111.251
-110.155
-109.091
-108.072
-107.109
-106.213
-105.394
-104.666
-104.038
-103.511
-103.088
-102.775
-102.58
-102.519
-102.61
-102.857
-103.268
-103.846
-104.587
-105.488
-106.534
-107.693
-108.932
-110.222
-111.539
-112.871
-114.205
-115.508
-116.743
-117.862
-118.816
-119.584
-120.144
-120.467
-120.556
-120.437
-120.169
-119.858
-119.591
-119.433
-119.465
-119.76
-120.399
-121.489
-123.101
-125.323
-128.323
-132.189
-136.919
-142.434
-148.437
-154.536
-160.386
-165.506
-169.25
-171.163
-171.039
-168.991
-165.632
-161.832
-158.44
-156.393
-157.015
-160.724
-166.291
-172.086
-175.832
-176.81
-177.903
-180.68
-182.966
-178.048
-153.436
-98.824
-12.136
100.962
227.943
356.004
476.46
584.157
674.551
740.063
772.575
763.529
707.545
606.605
464.53
290.737
100.481
-89.295
-257.533
-387.587
-471.821
-511.795
-517.194
-497.986
-463.677
-420.038
-371.978
-327.842
-291.703
-265.994
-249.37
-234.018
-216.569
-196.666
-175.775
-159.414
-149.546
-144.963
-144.477
-145.486
-146.345
-146.912
-146.689
-145.195
-142.517
-138.874
-134.486
-129.797
-125.195
-120.921
-117.439
-115.276
-114.524
-114.964
-116.305
-118.167
-120.281
-122.51
-124.586
-126.157
-126.995
-126.959
-126.02
-124.253
-121.696
-118.352
-114.278
-109.576
-104.391
-98.912
-93.285
-87.58
-81.844
-76.105
-70.39
-64.741
-59.185
-53.724
-48.348
-43.047
-37.82
-32.673
-27.598
-22.564
-17.518
-12.387
-7.121
-1.687
3.941
9.782
15.865
22.207
28.798
35.612
42.614
49.775
57.078
64.5
71.999
79.545
87.107
94.671
102.251
109.842
117.421
124.954
132.382
139.673
146.818
153.815
160.665
167.37
173.917
180.324
186.635
192.854
198.948
204.842
210.405
215.545
220.203
224.333
227.918
230.919
233.273
234.934
235.863
236.015
235.347
233.783
231.204
227.557
222.848
217.137
210.559
203.215
195.166
186.48
177.211
167.425
157.204
146.607
135.672
124.46
113.044
101.528
90.064
78.748
67.628
56.721
45.985
35.409
25.006
14.78
4.737
-5.116
-14.773
-24.205
-33.359
-42.206
-50.73
-58.933
-66.847
-74.478
-81.809
-88.817
-95.459
-101.703
-107.533
-112.925
-117.855
-122.308
-126.275
-129.763
-132.795
-135.387
-137.547
-139.283
-140.595
-141.492
-141.989
-142.101
-141.846
-141.241
-140.304
-139.055
-137.518
-135.712
-133.655
-131.361
-128.841
-126.108
-123.174
-120.053
-116.758
-113.301
-109.694
-105.95
-102.084
-98.108
-94.035
-89.874
-85.637
-81.333
-76.973
-72.565
-68.118
-63.64
-59.14
-54.626
-50.105
-45.585
-41.074
-36.578
-32.104
-27.661
-23.253
-18.889
-14.575
-10.316
-6.121
-1.995
2.054
6.019
9.894
13.672
17.346
20.908
24.354
27.678
30.873
33.937
36.863
39.648
42.289
44.782
47.125
49.316
51.352
53.234
54.959
56.528
57.941
59.2
60.304
61.257
62.06
62.717
63.229
63.602
63.84
63.947
63.928
63.79
63.539
63.18
62.722
62.171
61.534
60.819
60.034
59.187
58.285
57.336
56.347
55.326
54.28
53.215
52.138
51.055
49.972
48.893
47.825
46.772
45.74
44.732
43.754
42.808
41.899
41.03
40.203
39.42
38.683
37.992
37.349
36.753
36.204
35.701
35.245
34.833
34.464
34.137
33.848
33.596
33.376
33.187
33.024
32.884
32.765
32.662
32.574
32.497
32.429
32.368
32.31
32.252
32.19
32.123
32.047
31.959
31.856
31.736
31.599
31.444
31.272
31.082
30.876
30.654
30.421
30.178
29.927
29.668
29.404
29.138
28.872
28.611
28.357
28.114
27.888
27.687
27.521
27.396
27.317
27.288
27.314
27.401
27.555
27.779
28.071
28.433
28.87
29.395
30.021
30.751
31.573
32.466
33.414
34.405
35.425
36.449
37.447
38.396
39.29
40.149
40.99
41.818
42.619
43.363
44.02
44.586
45.076
45.51
45.893
46.228
46.533
46.861
47.275
47.804
48.425
49.057
49.625
50.091
50.439
50.675
50.793
50.762
50.555
50.17
49.629
48.937
48.071
46.942
45.44
43.527
41.252
38.733
36.094
33.403
30.702
28.059
25.573
23.261
21.058
18.765
16.072
12.781
8.802
4.041
-1.522
-7.712
-14.253
-20.675
-26.285
-30.6
-33.232
-33.662
-31.643
-27.335
-21.17
-14
-6.894
-0.596
4.011
5.66
3.481
-3.058
-14.076
-28.857
-46.739
-66.597
-85.606
-100.564
-108.498
-108.06
-101.54
-90.853
-74.561
-48.176
-2.783
69.485
168.808
290.848
426.805
563.405
691.19
800.882
879.423
919.018
913.756
859.702
763.868
633.778
474.539
296.784
110.406
-70.646
-224.616
-336.311
-399.496
-417.568
-404.138
-370.989
-325.244
-271.074
-212.103
-156.842
-113.656
-87.43
-77.154
-74.321
-72.194
-67.827
-61.973
-59.505
-62.078
-68.27
-75.561
-80.108
-80.399
-76.928
-70.282
-61.57
-51.832
-41.742
-32.386
-24.903
-19.741
-16.967
-16.368
-17.448
-19.767
-22.933
-26.418
-29.708
-32.509
-34.666
-36.163
-37.055
-37.339
-36.982
-35.95
-34.237
-31.872
-28.897
-25.386
-21.442
-17.169
-12.675
-8.08
-3.457
1.145
5.697
10.209
14.697
19.162
23.608
28.023
32.389
36.714
41.019
45.334
49.717
54.214
58.869
63.732
68.84
74.214
79.867
85.797
91.988
98.43
105.116
112.039
119.196
126.577
134.167
141.951
149.905
158.006
166.225
174.53
182.888
191.264
199.624
207.937
216.171
224.292
232.264
240.051
247.614
254.917
261.92
268.585
274.873
280.746
286.171
291.114
295.546
299.438
302.764
305.503
307.635
309.142
310.012
310.234
309.801
308.709
306.958
304.55
301.492
297.795
293.471
288.539
283.017
276.931
270.307
263.174
255.565
247.515
239.061
230.242
221.097
211.669
202
192.135
182.118
171.993
161.803
151.594
141.406
131.28
121.257
111.375
101.67
92.176
82.925
73.947
65.271
56.92
48.92
41.288
34.044
27.201
20.772
14.766
9.19
4.047
-0.662
-4.939
-8.788
-12.215
-15.23
-17.844
-20.07
-21.924
-23.422
-24.582
-25.423
-25.966
-26.232
-26.242
-26.018
-25.582
-24.956
-24.162
-23.222
-22.156
-20.986
-19.731
-18.41
-17.042
-15.645
-14.236
-12.83
-11.443
-10.088
-8.777
-7.522
-6.332
-5.216
-4.182
-3.236
-2.381
-1.621
-0.96
-0.397
0.068
0.434
0.704
0.88
0.966
0.966
0.883
0.723
0.49
0.188
-0.176
-0.599
-1.074
-1.599
-2.166
-2.772
-3.412
-4.08
-4.774
-5.487
-6.217
-6.959
-7.71
-8.467
-9.226
-9.987
-10.747
-11.504
-12.258
-13.008
-13.753
-14.495
-15.233
-15.969
-16.704
-17.44
-18.178
-18.921
-19.67
-20.428
-21.195
-21.975
-22.767
-23.574
-24.397
-25.236
-26.093
-26.968
-27.862
-28.776
-29.71
-30.666
-31.642
-32.639
-33.657
-34.696
-35.756
-36.836
-37.935
-39.052
-40.188
-41.34
-42.507
-43.689
-44.883
-46.088
-47.301
-48.521
-49.746
-50.973
-52.202
-53.431
-54.658
-55.882
-57.104
-58.323
-59.538
-60.751
-61.96
-63.168
-64.373
-65.578
-66.784
-67.992
-69.203
-70.42
-71.643
-72.876
-74.12
-75.376
-76.647
-77.934
-79.24
-80.565
-81.911
-83.281
-84.675
-86.095
-87.544
-89.021
-90.528
-92.065
-93.632
-95.229
-96.854
-98.506
-100.181
-101.877
-103.59
-105.317
-107.054
-108.796
-110.538
-112.273
-113.996
-115.7
-117.378
-119.022
-120.625
-122.179
-123.676
-125.109
-126.47
-127.751
-128.945
-130.046
-131.045
-131.938
-132.718
-133.378
-133.913
-134.318
-134.592
-134.731
-134.734
-134.602
-134.336
-133.942
-133.425
-132.792
-132.049
-131.204
-130.266
-129.246
-128.156
-127.008
-125.813
-124.583
-123.332
-122.077
-120.834
-119.619
-118.444
-117.322
-116.263
-115.283
-114.396
-113.61
-112.933
-112.372
-111.933
-111.632
-111.482
-111.489
-111.655
-111.982
-112.463
-113.093
-113.861
-114.743
-115.714
-116.751
-117.829
-118.928
-120.034
-121.125
-122.185
-123.203
-124.156
-125.024
-125.785
-126.396
-126.858
-127.218
-127.522
-127.813
-128.168
-128.673
-129.509
-130.972
-133.219
-136.258
-140.048
-144.526
-149.659
-155.374
-161.297
-166.713
-171.038
-173.965
-175.426
-175.481
-173.996
-170.869
-166.521
-161.957
-158.259
-156.346
-156.74
-159.671
-165.853
-175.056
-185.42
-194.946
-201.118
-204
-207.136
-210.827
-212.049
-202.644
-169.191
-105.678
-14.657
94.372
204.964
307.388
399.789
482.682
558.965
623.221
662.775
666.875
626.296
541.663
421.688
274.106
110.678
-56.729
-215.693
-348.69
-443.962
-497.812
-514.062
-503.945
-476.122
-435.186
-384.058
-326.686
-272.364
-229.929
-203.963
-192.712
-187.372
-181.426
-172.802
-163.16
-157.687
-158.563
-164.903
-174.513
-184.022
-191.558
-196.511
-198.725
-198.713
-196.928
-193.673
-189.51
-184.971
-180.609
-177.123
-174.797
-173.596
-173.362
-173.774
-174.549
-175.502
-176.388
-176.913
-176.928
-176.378
-175.289
-173.78
-171.92
-169.736
-167.273
-164.576
-161.695
-158.681
-155.574
-152.394
-149.156
-145.866
-142.525
-139.132
-135.674
-132.132
-128.475
-124.663
-120.669
-116.475
-112.064
-107.42
-102.521
-97.331
-91.826
-85.992
-79.82
-73.312
-66.471
-59.302
-51.826
-44.082
-36.107
-27.943
-19.622
-11.153
-2.548
6.176
14.996
23.884
32.823
41.828
50.917
60.097
69.384
78.786
88.329
98.083
108.095
118.386
128.964
139.778
150.767
161.889
173.09
184.303
195.447
206.386
216.965
227.074
236.594
245.396
253.335
260.19
265.766
269.933
272.594
273.724
273.327
271.378
267.873
262.858
256.389
248.58
239.577
229.447
218.278
206.205
193.389
180.085
166.556
152.983
139.508
126.232
113.23
100.61
88.469
76.842
65.765
55.254
45.306
36.007
27.425
19.558
12.379
5.781
-0.379
-6.17
-11.63
-16.799
-21.692
-26.343
-30.79
-35.015
-39.006
-42.765
-46.299
-49.679
-52.97
-56.182
-59.306
-62.293
-65.061
-67.575
-69.818
-71.76
-73.392
-74.707
-75.701
-76.405
-76.856
-77.072
-77.062
-76.811
-76.304
-75.555
-74.59
-73.445
-72.176
-70.822
-69.416
-68.003
-66.617
-65.283
-64.023
-62.844
-61.742
-60.726
-59.808
-59
-58.317
-57.768
-57.353
-57.074
-56.929
-56.912
-57.017
-57.236
-57.559
-57.978
-58.487
-59.083
-59.762
-60.521
-61.352
-62.249
-63.204
-64.207
-65.249
-66.32
-67.408
-68.503
-69.594
-70.673
-71.729
-72.756
-73.745
-74.688
-75.578
-76.409
-77.173
-77.867
-78.484
-79.02
-79.473
-79.839
-80.117
-80.306
-80.404
-80.413
-80.333
-80.166
-79.911
-79.572
-79.15
-78.647
-78.067
-77.412
-76.686
-75.891
-75.034
-74.117
-73.146
-72.125
-71.059
-69.952
-68.808
-67.632
-66.427
-65.197
-63.945
-62.674
-61.388
-60.088
-58.779
-57.461
-56.138
-54.81
-53.48
-52.149
-50.818
-49.489
-48.162
-46.837
-45.517
-44.202
-42.894
-41.592
-40.298
-39.012
-37.737
-36.472
-35.218
-33.977
-32.748
-31.533
-30.332
-29.147
-27.978
-26.826
-25.691
-24.575
-23.479
-22.404
-21.349
-20.316
-19.305
-18.316
-17.349
-16.404
-15.479
-14.573
-13.685
-12.813
-11.954
-11.106
-10.267
-9.431
-8.596
-7.757
-6.909
-6.047
-5.165
-4.257
-3.317
-2.338
-1.314
-0.239
0.895
2.093
3.363
4.709
6.137
7.653
9.263
10.973
12.785
14.703
16.729
18.864
21.111
23.465
25.921
28.475
31.119
33.847
36.651
39.52
42.442
45.406
48.401
51.418
54.446
57.471
60.475
63.442
66.359
69.211
71.988
74.675
77.255
79.714
82.046
84.243
86.3
88.204
89.929
91.457
92.777
93.878
94.758
95.417
95.852
96.076
96.119
96.01
95.781
95.461
95.065
94.615
94.136
93.644
93.177
92.765
92.434
92.229
92.169
92.231
92.359
92.489
92.564
92.504
92.146
91.232
89.516
86.855
83.304
78.938
73.619
67.311
60.219
52.835
45.941
40.139
35.513
32.058
30.182
30.147
31.846
34.628
37.092
37.888
36.343
32.087
24.223
12.676
-0.964
-14.61
-25.174
-31.003
-34.5
-37.32
-37.425
-29.349
-2.048
54.978
143.572
259.808
393.953
531.545
662.77
779.185
869.771
927.173
943.309
911.653
836.355
723.787
581.561
421.653
251.723
81.928
-71.306
-195.602
-280.634
-322.62
-330.323
-314.139
-283.85
-248.867
-211.551
-173.11
-136.005
-99.222
-64.045
-32.554
-5.063
15.323
27.266
31.702
29.304
22.662
14.186
5.313
-2.213
-7.129
-8.958
-7.667
-3.715
2.083
8.896
15.892
22.16
26.801
29.386
29.969
28.793
26.32
23.011
19.192
15.273
11.689
8.662
6.296
4.628
3.601
3.221
3.539
4.516
6.086
8.169
10.632
13.385
16.36
19.457
22.61
25.778
28.923
32.053
35.191
38.339
41.503
44.676
47.838
50.995
54.163
57.373
60.676
64.119
67.743
71.597
75.715
80.12
84.83
89.844
95.148
100.731
106.587
112.706
119.087
125.721
132.593
139.686
146.98
154.448
162.066
169.802
177.623
185.494
193.384
201.259
209.091
216.846
224.49
231.988
239.303
246.398
253.235
259.777
265.986
271.823
277.255
282.248
286.772
290.797
294.296
297.247
299.627
301.42
302.609
303.184
303.134
302.455
301.144
299.201
296.631
293.442
289.645
285.253
280.284
274.759
268.702
262.137
255.094
247.602
239.695
231.407
222.774
213.832
204.622
195.183
185.556
175.782
165.901
155.955
145.983
136.025
126.118
116.298
106.602
97.06
87.706
78.568
69.673
61.046
52.71
44.686
36.99
29.639
22.645
16.019
9.768
3.898
-1.588
-6.688
-11.403
-15.738
-19.695
-23.283
-26.51
-29.387
-31.925
-34.137
-36.039
-37.645
-38.973
-40.04
-40.864
-41.462
-41.853
-42.055
-42.086
-41.965
-41.708
-41.333
-40.856
-40.294
-39.662
-38.974
-38.244
-37.486
-36.711
-35.93
-35.155
-34.394
-33.657
-32.951
-32.284
-31.663
-31.093
-30.58
-30.128
-29.741
-29.421
-29.17
-28.99
-28.881
-28.845
-28.881
-28.988
-29.165
-29.412
-29.726
-30.107
-30.552
-31.059
-31.626
-32.252
-32.932
-33.666
-34.451
-35.285
-36.166
-37.092
-38.059
-39.067
-40.112
-41.193
-42.306
-43.449
-44.619
-45.812
-47.027
-48.26
-49.508
-50.768
-52.039
-53.315
-54.596
-55.879
-57.16
-58.438
-59.709
-60.972
-62.224
-63.464
-64.689
-65.897
-67.087
-68.258
-69.408
-70.535
-71.639
-72.718
-73.77
-74.795
-75.791
-76.758
-77.696
-78.604
-79.483
-80.332
-81.154
-81.947
-82.715
-83.458
-84.177
-84.874
-85.551
-86.21
-86.853
-87.482
-88.1
-88.709
-89.313
-89.912
-90.51
-91.108
-91.708
-92.311
-92.919
-93.534
-94.156
-94.785
-95.424
-96.071
-96.73
-97.399
-98.079
-98.771
-99.473
-100.185
-100.906
-101.634
-102.368
-103.104
-103.841
-104.576
-105.305
-106.026
-106.735
-107.426
-108.096
-108.739
-109.35
-109.925
-110.455
-110.936
-111.362
-111.729
-112.03
-112.263
-112.421
-112.501
-112.498
-112.41
-112.234
-111.966
-111.602
-111.142
-110.584
-109.929
-109.178
-108.33
-107.389
-106.358
-105.243
-104.052
-102.793
-101.475
-100.108
-98.705
-97.281
-95.848
-94.419
-93.004
-91.613
-90.258
-88.952
-87.707
-86.533
-85.441
-84.442
-83.544
-82.756
-82.081
-81.509
-81.037
-80.658
-80.371
-80.193
-80.13
-80.188
-80.378
-80.706
-81.18
-81.803
-82.554
-83.4
-84.316
-85.284
-86.311
-87.413
-88.581
-89.8
-91.044
-92.262
-93.428
-94.499
-95.373
-96.013
-96.473
-96.871
-97.454
-98.465
-100.004
-102.228
-105.349
-109.312
-113.9
-118.664
-122.868
-126.021
-127.933
-128.263
-126.64
-123.078
-117.848
-111.711
-105.894
-101.121
-97.757
-96.506
-98.221
-103.424
-112.465
-125.121
-140.475
-158.234
-177.443
-195.123
-208.22
-214.028
-212.205
-206.795
-200.5
-191.382
-172.891
-133.092
-62.736
38.067
163.108
300.554
435.921
560.167
664.926
739.959
779.301
776.111
726.642
636.066
510.066
357.38
190.361
20.538
-137.238
-267.818
-361.862
-417.752
-441.518
-443.359
-431.331
-407.284
-371.003
-323.926
-271.384
-222.948
-186.068
-162.506
-148.877
-139.758
-131.687
-124.604
-121.279
-123.441
-130.515
-140.517
-149.982
-156.449
-159.351
-158.786
-155.402
-149.996
-143.133
-135.457
-127.966
-121.607
-116.837
-113.767
-112.231
-111.862
-112.312
-113.256
-114.279
-114.973
-115.121
-114.642
-113.543
-111.914
-109.826
-107.32
-104.462
-101.32
-97.936
-94.343
-90.571
-86.642
-82.601
-78.505
-74.387
-70.266
-66.152
-62.036
-57.91
-53.762
-49.567
-45.295
-40.925
-36.441
-31.829
-27.076
-22.164
-17.07
-11.775
-6.261
-0.514
5.476
11.717
18.211
24.956
31.945
39.167
46.61
54.261
62.108
70.135
78.325
86.66
95.116
103.671
112.298
120.969
129.653
138.316
146.925
155.444
163.839
172.073
180.11
187.912
195.444
202.669
209.552
216.058
222.153
227.804
232.982
237.656
241.802
245.395
248.414
250.839
252.655
253.85
254.413
254.339
253.624
252.268
250.274
247.65
244.405
240.553
236.11
231.095
225.532
219.447
212.868
205.825
198.352
190.484
182.257
173.71
164.883
155.816
146.551
137.128
127.59
117.979
108.335
98.7
89.113
79.613
70.237
61.019
51.995
43.196
34.652
26.39
18.436
10.813
3.541
-3.362
-9.882
-16.005
-21.723
-27.027
-31.915
-36.384
-40.435
-44.072
-47.299
-50.125
-52.56
-54.615
-56.304
-57.642
-58.646
-59.334
-59.726
-59.84
-59.697
-59.32
-58.728
-57.944
-56.99
-55.886
-54.655
-53.317
-51.893
-50.402
-48.864
-47.298
-45.719
-44.145
-42.59
-41.069
-39.594
-38.175
-36.825
-35.55
-34.359
-33.258
-32.252
-31.345
-30.54
-29.838
-29.24
-28.746
-28.354
-28.062
-27.867
-27.768
-27.758
-27.836
-27.995
-28.231
-28.54
-28.916
-29.353
-29.847
-30.391
-30.98
-31.609
-32.274
-32.967
-33.687
-34.427
-35.183
-35.953
-36.732
-37.517
-38.306
-39.096
-39.884
-40.669
-41.448
-42.221
-42.985
-43.741
-44.486
-45.22
-45.942
-46.651
-47.347
-48.028
-48.695
-49.345
-49.978
-50.593
-51.189
-51.766
-52.321
-52.855
-53.365
-53.852
-54.314
-54.749
-55.156
-55.535
-55.885
-56.203
-56.49
-56.745
-56.967
-57.156
-57.313
-57.437
-57.529
-57.59
-57.621
-57.623
-57.599
-57.55
-57.48
-57.391
-57.287
-57.171
-57.048
-56.921
-56.794
-56.673
-56.561
-56.462
-56.382
-56.324
-56.293
-56.292
-56.327
-56.401
-56.518
-56.681
-56.893
-57.155
-57.471
-57.84
-58.263
-58.739
-59.267
-59.846
-60.475
-61.149
-61.864
-62.617
-63.401
-64.21
-65.037
-65.873
-66.711
-67.54
-68.353
-69.138
-69.888
-70.592
-71.24
-71.823
-72.332
-72.759
-73.094
-73.329
-73.455
-73.466
-73.355
-73.118
-72.752
-72.252
-71.619
-70.855
-69.965
-68.952
-67.822
-66.581
-65.236
-63.797
-62.275
-60.681
-59.025
-57.32
-55.579
-53.822
-52.066
-50.326
-48.617
-46.953
-45.346
-43.815
-42.373
-41.03
-39.793
-38.672
-37.675
-36.825
-36.138
-35.624
-35.288
-35.134
-35.16
-35.364
-35.737
-36.253
-36.882
-37.6
-38.379
-39.2
-40.048
-40.897
-41.725
-42.514
-43.234
-43.863
-44.376
-44.727
-44.909
-44.971
-44.957
-44.916
-44.953
-45.177
-45.793
-47.141
-49.404
-52.599
-56.726
-61.762
-67.618
-74.19
-81.023
-87.233
-92.196
-95.602
-97.284
-97.27
-95.566
-92.126
-87.57
-83.41
-80.946
-81.068
-84.434
-91.145
-101.328
-115.451
-131.97
-146.924
-156.874
-158.253
-150.61
-137.731
-119.613
-94.211
-55.981
5.779
94.307
207.907
341.073
479.305
611.522
727.192
812.146
858.691
859.252
809.419
715.281
583.836
425.26
252.465
75.626
-91.732
-236.062
-346.126
-413.47
-437.797
-423.315
-380.145
-321.892
-261.076
-211.115
-177.564
-159.024
-150.115
-140.2
-124.845
-105.302
-84.751
-69.828
-62.979
-62.486
-66.691
-72.813
-78.797
-84.252
-88.554
-91.005
-91.615
-90.572
-87.965
-84.138
-79.587
-74.67
-69.955
-66.127
-63.362
-61.568
-60.607
-60.168
-60.003
-59.974
-59.831
-59.287
-58.218
-56.588
-54.435
-51.881
-48.996
-45.807
-42.369
-38.739
-34.972
-31.123
-27.236
-23.335
-19.44
-15.563
-11.712
-7.889
-4.091
-0.304
3.498
7.344
11.257
15.254
19.35
23.557
27.894
32.382
37.039
41.883
46.924
52.173
57.636
63.315
69.216
75.335
81.669
88.211
94.947
101.861
108.941
116.173
123.537
131.017
138.583
146.201
153.856
161.519
169.17
176.787
184.33
191.759
199.037
206.12
212.989
219.632
226.011
232.094
237.855
243.25
248.268
252.912
257.138
260.915
264.216
267.001
269.277
271.061
272.343
273.113
273.333
272.934
271.898
270.219
267.88
264.897
261.25
256.89
251.848
246.149
239.799
232.834
225.23
216.934
207.965
198.37
188.234
177.705
166.881
155.823
144.622
133.335
122.046
110.875
99.87
89.068
78.538
68.335
58.565
49.386
40.867
33.024
25.838
19.217
13.105
7.492
2.334
-2.394
-6.727
-10.721
-14.388
-17.714
-20.724
-23.445
-25.948
-28.346
-30.694
-32.999
-35.251
-37.388
-39.37
-41.195
-42.84
-44.283
-45.515
-46.524
-47.323
-47.955
-48.436
-48.773
-48.955
-48.949
-48.746
-48.362
-47.819
-47.158
-46.412
-45.602
-44.753
-43.898
-43.056
-42.242
-41.459
-40.693
-39.94
-39.203
-38.486
-37.799
-37.149
-36.533
-35.95
-35.397
-34.872
-34.371
-33.89
-33.42
-32.957
-32.499
-32.048
-31.608
-31.183
-30.775
-30.386
-30.017
-29.672
-29.351
-29.056
-28.788
-28.546
-28.333
-28.151
-28.004
-27.894
-27.825
-27.8
-27.821
-27.893
-28.017
-28.197
-28.434
-28.732
-29.092
-29.515
-30.003
-30.557
-31.177
-31.864
-32.617
-33.435
-34.317
-35.26
-36.262
-37.321
-38.433
-39.594
-40.8
-42.047
-43.331
-44.647
-45.992
-47.36
-48.748
-50.149
-51.561
-52.977
-54.393
-55.805
-57.206
-58.593
-59.96
-61.303
-62.618
-63.9
-65.144
-66.345
-67.501
-68.608
-69.661
-70.658
-71.594
-72.468
-73.276
-74.016
-74.684
-75.278
-75.795
-76.232
-76.589
-76.862
-77.05
-77.151
-77.165
-77.09
-76.927
-76.673
-76.328
-75.892
-75.365
-74.749
-74.044
-73.252
-72.376
-71.421
-70.394
-69.301
-68.149
-66.946
-65.697
-64.412
-63.103
-61.778
-60.447
-59.119
-57.803
-56.511
-55.257
-54.054
-52.911
-51.837
-50.84
-49.927
-49.112
-48.403
-47.803
-47.312
-46.931
-46.663
-46.52
-46.513
-46.641
-46.904
-47.301
-47.827
-48.481
-49.256
-50.128
-51.071
-52.059
-53.062
-54.068
-55.072
-56.057
-57.024
-57.954
-58.816
-59.596
-60.27
-60.795
-61.185
-61.453
-61.588
-61.677
-61.842
-62.233
-63.141
-64.837
-67.387
-70.823
-75.145
-80.175
-85.731
-91.501
-96.741
-100.682
-102.905
-103.16
-101.453
-98.094
-93.303
-87.47
-81.711
-77.504
-76.018
-78.022
-83.848
-93.375
-106.461
-122.85
-140.454
-155.331
-164.079
-164.468
-157.244
-145.301
-128.412
-102.271
-58.791
9.153
101.152
209.49
320.485
422.195
510.032
583.4
644.159
690.062
712.706
702.81
652.338
559.437
428.189
267.365
91.044
-83.934
-238.921
-358.218
-433.182
-464.608
-459.956
-427.872
-378.661
-319.47
-257.421
-202.941
-160.678
-132.679
-117.161
-105.913
-95.344
-84.928
-75.579
-71.734
-74.46
-81.907
-91.818
-100.633
-106.122
-107.997
-106.457
-102.212
-96.16
-88.985
-81.469
-74.53
-68.977
-65.171
-63.091
-62.533
-63.1
-64.402
-66.122
-67.871
-69.259
-70.099
-70.335
-69.96
-69.045
-67.604
-65.593
-63.041
-60.034
-56.664
-53.031
-49.199
-45.213
-41.141
-37.058
-33.015
-29.041
-25.126
-21.242
-17.379
-13.532
-9.704
-5.907
-2.136
1.641
5.46
9.355
13.36
17.505
21.833
26.394
31.224
36.334
41.718
47.362
53.252
59.378
65.717
72.231
78.881
85.626
92.44
99.322
106.259
113.236
120.236
127.229
134.211
141.207
148.228
155.282
162.375
169.511
176.725
184.089
191.656
199.456
207.483
215.684
224.011
232.42
240.84
249.189
257.346
265.144
272.451
279.168
285.19
290.422
294.731
297.933
299.892
300.511
299.727
297.54
293.947
288.947
282.594
274.982
266.249
256.585
246.141
235.025
223.358
211.25
198.846
186.331
173.85
161.509
149.401
137.588
126.134
115.112
104.543
94.409
84.669
75.247
66.104
57.233
48.624
40.272
32.16
24.254
16.545
9.048
1.774
-5.266
-12.064
-18.624
-24.926
-30.928
-36.589
-41.858
-46.703
-51.113
-55.078
-58.593
-61.657
-64.274
-66.456
-68.233
-69.626
-70.655
-71.339
-71.695
-71.745
-71.521
-71.053
-70.369
-69.498
-68.464
-67.291
-66.004
-64.624
-63.169
-61.655
-60.095
-58.504
-56.897
-55.289
-53.694
-52.127
-50.599
-49.123
-47.709
-46.367
-45.104
-43.926
-42.837
-41.841
-40.938
-40.132
-39.421
-38.805
-38.282
-37.851
-37.509
-37.252
-37.077
-36.98
-36.957
-37.002
-37.112
-37.283
-37.51
-37.788
-38.115
-38.487
-38.9
-39.351
-39.836
-40.352
-40.896
-41.464
-42.055
-42.663
-43.288
-43.926
-44.575
-45.235
-45.903
-46.578
-47.259
-47.945
-48.634
-49.327
-50.022
-50.718
-51.414
-52.108
-52.8
-53.489
-54.172
-54.849
-55.516
-56.171
-56.811
-57.434
-58.033
-58.606
-59.148
-59.653
-60.117
-60.535
-60.902
-61.212
-61.458
-61.636
-61.738
-61.758
-61.69
-61.525
-61.259
-60.884
-60.394
-59.785
-59.05
-58.184
-57.183
-56.043
-54.76
-53.332
-51.755
-50.027
-48.149
-46.121
-43.945
-41.624
-39.162
-36.566
-33.846
-31.011
-28.071
-25.037
-21.921
-18.738
-15.502
-12.23
-8.934
-5.63
-2.332
0.941
4.171
7.34
10.436
13.444
16.351
19.141
21.796
24.305
26.664
28.87
30.919
32.802
34.499
36.002
37.309
38.417
39.325
40.037
40.549
40.875
41.049
41.1
41.068
40.974
40.82
40.616
40.366
40.084
39.812
39.578
39.399
39.309
39.323
39.444
39.694
40.007
40.232
40.203
39.67
38.403
36.291
33.242
29.213
24.36
18.896
13.163
7.75
3.235
0.136
-1.12
-0.373
2.225
6.446
11.887
17.792
23.159
26.778
27.66
25.114
18.823
8.769
-5.18
-21.594
-37.114
-48.675
-53.455
-51.856
-47.967
-41.912
-30
-3.97
48.283
130.591
238.367
361.795
487.001
604.852
711.153
800.895
866.858
900.277
891.596
836.099
737.332
601.404
438.168
260.954
83.544
-76.218
-201.529
-283.346
-322.085
-326.629
-309.448
-280.344
-241.683
-194.94
-142.928
-89.062
-41.999
-6.478
18.5
33.586
42.925
48.755
48.981
43.712
33.632
20.175
7.245
-2.422
-8.001
-9.307
-7.025
-2.152
4.564
12.343
20.063
26.65
31.593
34.767
36.348
36.788
36.506
35.821
35.148
34.901
35.275
36.35
38.111
40.429
43.211
46.41
49.955
53.78
57.849
62.115
66.531
71.067
75.665
80.279
84.886
89.465
94.012
98.532
103.034
107.534
112.061
116.634
121.264
125.96
130.728
135.581
140.538
145.618
150.842
156.224
161.776
167.509
173.432
179.547
185.851
192.338
198.998
205.823
212.805
219.934
227.202
234.593
242.091
249.68
257.34
265.047
272.776
280.498
288.184
295.802
303.32
310.706
317.925
324.943
331.725
338.237
344.443
350.31
355.803
360.888
365.533
369.707
373.381
376.527
379.12
381.135
382.553
383.355
383.528
383.058
381.937
380.159
377.723
374.628
370.88
366.487
361.458
355.81
349.56
342.73
335.344
327.431
319.021
310.147
300.845
291.151
281.105
270.747
260.119
249.264
238.226
227.049
215.777
204.454
193.125
181.833
170.621
159.528
148.595
137.859
127.356
117.119
107.18
97.569
88.31
79.429
70.947
62.88
55.246
48.056
41.319
35.042
29.227
23.877
18.988
14.555
10.572
7.028
3.912
1.209
-1.097
-3.022
-4.587
-5.813
-6.722
-7.336
-7.68
-7.777
-7.654
-7.335
-6.844
-6.207
-5.448
-4.591
-3.659
-2.674
-1.659
-0.634
0.382
1.371
2.316
3.201
4.012
4.738
5.368
5.891
6.301
6.59
6.754
6.788
6.691
6.462
6.099
5.604
4.98
4.228
3.355
2.363
1.259
0.048
-1.263
-2.667
-4.157
-5.726
-7.367
-9.071
-10.832
-12.642
-14.494
-16.382
-18.298
-20.237
-22.192
-24.16
-26.136
-28.115
-30.094
-32.072
-34.045
-36.012
-37.973
-39.927
-41.873
-43.813
-45.746
-47.674
-49.598
-51.52
-53.441
-55.364
-57.291
-59.223
-61.164
-63.116
-65.08
-67.058
-69.053
-71.066
-73.098
-75.15
-77.223
-79.315
-81.427
-83.557
-85.704
-87.867
-90.042
-92.226
-94.415
-96.603
-98.786
-100.956
-103.108
-105.234
-107.325
-109.373
-111.371
-113.31
-115.181
-116.974
-118.681
-120.293
-121.8
-123.196
-124.469
-125.611
-126.616
-127.475
-128.183
-128.735
-129.124
-129.35
-129.41
-129.307
-129.041
-128.615
-128.033
-127.297
-126.413
-125.389
-124.228
-122.939
-121.532
-120.016
-118.404
-116.712
-114.954
-113.143
-111.292
-109.411
-107.514
-105.61
-103.705
-101.809
-99.935
-98.093
-96.308
-94.596
-92.965
-91.427
-89.989
-88.646
-87.397
-86.23
-85.115
-84.033
-82.971
-81.916
-80.869
-79.816
-78.732
-77.602
-76.399
-75.115
-73.764
-72.333
-70.81
-69.207
-67.553
-65.942
-64.496
-63.259
-62.32
-61.819
-61.918
-62.927
-65.127
-68.548
-73.242
-79.292
-86.491
-94.59
-103.132
-111.059
-117.393
-121.617
-123.202
-121.849
