Name,Aleksandre Beruashvili
Date of Birth,"Dec 20, 1998"
Recorded Date,2024-05-19 13:14:33 +0400
Classification,Sinus Rhythm
Symptoms,
Software Version,1.90
Device,"Watch7,2"
Sample Rate,512 hertz


Lead,Lead I
Unit,µV

72.698
61.464
50.52
40.006
29.985
20.465
11.346
2.378
-6.708
-16.099
-25.907
-36.193
-46.805
-57.5
-67.881
-77.256
-84.885
-89.995
-92.011
-90.697
-86.267
-79.294
-70.581
-61.288
-52.845
-47.055
-45.575
-49.567
-59.59
-75.425
-96.402
-121.325
-148.016
-173.046
-192.497
-202.493
-199.226
-179.523
-140.79
-80.679
0.515
98.556
208.276
323.589
439.82
557.133
673.743
782.56
873.097
928.2
930.815
874.955
760.682
596.553
402.854
197.369
0.123
-166.848
-296.043
-385.737
-441.625
-480.022
-508.763
-529.743
-542.164
-539.424
-520.824
-491.132
-455.629
-421.119
-391.705
-368.727
-353.184
-344.895
-342.899
-346.067
-352.642
-360.56
-368.097
-373.39
-374.641
-371.045
-362.529
-349.421
-332.534
-312.808
-291.077
-268.543
-246.546
-225.851
-206.837
-189.601
-173.93
-159.64
-146.604
-134.477
-122.807
-111.311
-99.816
-88.287
-76.818
-65.452
-54.2
-43.082
-32.111
-21.275
-10.539
0.15
10.847
21.601
32.452
43.41
54.458
65.566
76.684
87.777
98.818
109.775
120.616
131.292
141.741
151.897
161.683
171.036
179.906
188.244
196.007
203.169
209.718
215.658
221.012
225.796
230.027
233.728
236.923
239.649
241.948
243.868
245.462
246.778
247.858
248.74
249.457
250.039
250.509
250.883
251.169
251.375
251.512
251.588
251.612
251.588
251.518
251.399
251.229
251.006
250.725
250.383
249.975
249.496
248.94
248.304
247.583
246.77
245.857
244.835
243.691
242.416
240.995
239.418
237.671
235.741
233.616
231.284
228.736
225.961
222.951
219.697
216.191
212.429
208.404
204.115
199.559
194.735
189.644
184.289
178.673
172.802
166.683
160.323
153.732
146.92
139.899
132.681
125.28
117.711
109.99
102.133
94.158
86.082
77.926
69.709
61.452
53.173
44.895
36.637
28.419
20.261
12.183
4.203
-3.662
-11.393
-18.974
-26.389
-33.625
-40.667
-47.504
-54.125
-60.522
-66.685
-72.61
-78.291
-83.725
-88.909
-93.844
-98.529
-102.966
-107.16
-111.113
-114.832
-118.324
-121.597
-124.659
-127.521
-130.193
-132.687
-135.014
-137.187
-139.218
-141.12
-142.905
-144.585
-146.173
-147.681
-149.121
-150.503
-151.839
-153.137
-154.408
-155.658
-156.895
-158.125
-159.353
-160.582
-161.817
-163.058
-164.308
-165.566
-166.832
-168.103
-169.377
-170.651
-171.92
-173.179
-174.422
-175.643
-176.836
-177.992
-179.106
-180.17
-181.176
-182.119
-182.99
-183.784
-184.494
-185.115
-185.641
-186.068
-186.393
-186.613
-186.726
-186.73
-186.626
-186.414
-186.096
-185.674
-185.152
-184.534
-183.823
-183.027
-182.15
-181.199
-180.182
-179.105
-177.978
-176.809
-175.606
-174.378
-173.134
-171.883
-170.632
-169.39
-168.163
-166.96
-165.786
-164.646
-163.546
-162.488
-161.477
-160.513
-159.598
-158.732
-157.912
-157.135
-156.399
-155.698
-155.026
-154.377
-153.743
-153.117
-152.489
-151.852
-151.197
-150.512
-149.789
-149.017
-148.185
-147.284
-146.302
-145.23
-144.057
-142.774
-141.372
-139.843
-138.181
-136.378
-134.43
-132.331
-130.079
-127.672
-125.108
-122.389
-119.514
-116.488
-113.314
-109.999
-106.55
-102.974
-99.281
-95.48
-91.581
-87.594
-83.529
-79.394
-75.199
-70.955
-66.673
-62.361
-58.032
-53.698
-49.37
-45.064
-40.791
-36.562
-32.385
-28.267
-24.217
-20.24
-16.338
-12.513
-8.765
-5.092
-1.496
2.02
5.461
8.831
12.142
15.411
18.647
21.852
25.029
28.176
31.291
34.366
37.377
40.295
43.088
45.735
48.223
50.55
52.703
54.673
56.445
58
59.347
60.506
61.505
62.383
63.164
63.885
64.609
65.413
66.39
67.609
69.094
70.86
72.917
75.252
77.924
80.984
84.289
87.692
91.005
93.989
96.673
99.106
101.047
102.311
102.983
103.171
103.329
103.966
104.788
105.404
105.706
105.303
103.779
100.697
94.916
85.359
72.123
55.684
36.8
16.873
-2.928
-21.429
-36.736
-47.094
-51.678
-50.444
-44.376
-35.363
-25.213
-15.646
-8.485
-5.505
-8.218
-16.906
-30.437
-46.834
-63.53
-79.442
-95.532
-111.565
-125.676
-133.261
-127.556
-107.236
-79.119
-56.712
-54.347
-76.642
-115.185
-152.524
-172.927
-171.934
-154.374
-128.534
-97.469
-52.211
19.243
124.666
265.276
427.937
592.535
738.625
843.296
891.66
881.026
817.405
716.746
597.656
468.28
328.111
176.443
13.632
-148.125
-285.793
-385.809
-443.536
-463.279
-459.923
-438.822
-397.229
-336.372
-259.625
-181.276
-121.665
-90.549
-86.677
-98.645
-112.028
-120.327
-124.49
-129.38
-138.329
-149.948
-160.694
-167.089
-167.799
-163.694
-156.338
-147.447
-138.642
-131.426
-126.818
-125.261
-126.778
-130.999
-137.438
-145.599
-154.769
-164.148
-173.222
-181.714
-189.513
-196.657
-203.101
-208.722
-213.496
-217.453
-220.612
-223.004
-224.629
-225.483
-225.649
-225.275
-224.542
-223.612
-222.583
-221.505
-220.419
-219.364
-218.384
-217.525
-216.793
-216.184
-215.698
-215.334
-215.095
-214.968
-214.914
-214.864
-214.745
-214.497
-214.079
-213.464
-212.629
-211.554
-210.22
-208.618
-206.751
-204.62
-202.218
-199.536
-196.563
-193.293
-189.728
-185.876
-181.744
-177.34
-172.669
-167.739
-162.561
-157.145
-151.499
-145.631
-139.551
-133.269
-126.802
-120.168
-113.388
-106.484
-99.479
-92.4
-85.274
-78.131
-70.997
-63.903
-56.877
-49.949
-43.15
-36.507
-30.052
-23.811
-17.813
-12.086
-6.655
-1.546
3.218
7.615
11.624
15.226
18.405
21.145
23.434
25.26
26.616
27.494
27.888
27.799
27.225
26.169
24.638
22.638
20.18
17.276
13.944
10.199
6.061
1.552
-3.305
-8.487
-13.966
-19.717
-25.71
-31.917
-38.309
-44.856
-51.528
-58.293
-65.123
-71.988
-78.858
-85.705
-92.5
-99.216
-105.827
-112.307
-118.633
-124.782
-130.732
-136.463
-141.957
-147.198
-152.17
-156.862
-161.263
-165.363
-169.157
-172.639
-175.808
-178.662
-181.204
-183.436
-185.364
-186.994
-188.334
-189.393
-190.183
-190.716
-191.003
-191.059
-190.898
-190.535
-189.986
-189.266
-188.391
-187.378
-186.243
-185.002
-183.671
-182.266
-180.802
-179.295
-177.759
-176.208
-174.656
-173.114
-171.594
-170.106
-168.661
-167.266
-165.928
-164.655
-163.449
-162.316
-161.259
-160.278
-159.375
-158.549
-157.8
-157.125
-156.522
-155.987
-155.516
-155.104
-154.747
-154.438
-154.172
-153.943
-153.742
-153.565
-153.404
-153.252
-153.102
-152.947
-152.78
-152.595
-152.384
-152.142
-151.863
-151.541
-151.172
-150.752
-150.277
-149.744
-149.151
-148.495
-147.777
-146.994
-146.149
-145.24
-144.27
-143.241
-142.156
-141.017
-139.829
-138.595
-137.322
-136.014
-134.678
-133.319
-131.943
-130.558
-129.171
-127.789
-126.419
-125.069
-123.748
-122.462
-121.22
-120.029
-118.897
-117.831
-116.839
-115.927
-115.1
-114.366
-113.729
-113.193
-112.764
-112.445
-112.239
-112.15
-112.178
-112.327
-112.595
-112.983
-113.49
-114.114
-114.852
-115.702
-116.658
-117.716
-118.87
-120.114
-121.441
-122.842
-124.31
-125.834
-127.404
-129.009
-130.637
-132.276
-133.912
-135.533
-137.125
-138.673
-140.164
-141.586
-142.924
-144.165
-145.295
-146.3
-147.168
-147.887
-148.443
-148.822
-149.01
-148.998
-148.774
-148.331
-147.659
-146.751
-145.601
-144.204
-142.559
-140.666
-138.522
-136.125
-133.474
-130.569
-127.422
-124.05
-120.464
-116.678
-112.714
-108.587
-104.326
-99.96
-95.499
-90.958
-86.354
-81.696
-77.017
-72.35
-67.723
-63.168
-58.703
-54.339
-50.104
-46.022
-42.099
-38.347
-34.763
-31.336
-28.106
-25.11
-22.375
-19.939
-17.806
-15.973
-14.448
-13.234
-12.333
-11.75
-11.46
-11.43
-11.658
-12.136
-12.872
-13.88
-15.094
-16.446
-17.886
-19.351
-20.83
-22.316
-23.767
-25.131
-26.371
-27.467
-28.484
-29.503
-30.514
-31.551
-32.687
-34.057
-36.016
-38.891
-42.739
-47.551
-53.306
-59.803
-66.823
-73.953
-80.194
-84.522
-86.366
-85.392
-81.585
-75.245
-66.585
-56.245
-45.866
-37.21
-31.779
-30.764
-34.524
-43.385
-57.026
-72.849
-87.223
-96.375
-99.013
-98.66
-98.147
-95.725
-82.896
-44.381
30.843
143.739
285.367
438.806
589.619
729.572
853.109
954.479
1024.09
1047.6
1012.699
915.802
761.176
564.91
351.673
144.926
-31.185
-160.914
-243.381
-284.218
-297.712
-299.164
-293.598
-281.991
-262.017
-230.133
-189.363
-145.514
-103.312
-67.344
-39.7
-20.227
-8.622
-3.781
-3.754
-6.691
-11.355
-16.576
-21.119
-23.933
-23.912
-20.593
-14.451
-6.201
3.613
14.384
25.424
35.986
45.128
52.352
57.752
61.571
64.123
65.707
66.502
66.732
66.776
66.862
67.037
67.32
67.643
67.996
68.509
69.279
70.325
71.641
73.159
74.81
76.589
78.484
80.482
82.61
84.88
87.308
89.945
92.827
95.958
99.33
102.872
106.489
110.13
113.776
117.438
121.149
124.922
128.764
132.694
136.722
140.861
145.116
149.472
153.917
158.454
163.102
167.895
172.888
178.116
183.597
189.344
195.358
201.641
208.19
214.993
222.029
229.28
236.731
244.369
252.187
260.166
268.283
276.511
284.818
293.173
301.547
309.907
318.222
326.459
334.589
342.584
350.419
358.065
365.492
372.671
379.571
386.162
392.414
398.301
403.792
408.862
413.487
417.645
421.316
424.484
427.131
429.245
430.815
431.831
432.288
432.181
431.508
430.27
428.469
426.111
423.202
419.752
415.772
411.278
406.283
400.807
394.866
388.484
381.681
374.481
366.91
358.995
350.763
342.244
333.468
324.465
315.267
305.904
296.41
286.813
277.146
267.438
257.72
248.019
238.365
228.784
219.302
209.945
200.737
191.699
182.853
174.217
165.811
157.65
149.749
142.123
134.782
127.737
120.997
114.569
108.457
102.665
97.195
92.046
87.216
82.703
78.502
74.605
71.007
67.698
64.669
61.909
59.408
57.153
55.132
53.331
51.738
50.339
49.12
48.067
47.166
46.404
45.767
45.242
44.816
44.475
44.207
44
43.841
43.72
43.625
43.547
43.476
43.404
43.323
43.227
43.109
42.965
42.79
42.582
42.337
42.054
41.731
41.368
40.966
40.524
40.046
39.531
38.982
38.402
37.793
37.157
36.499
35.82
35.124
34.414
33.694
32.968
32.239
31.51
30.787
30.072
29.37
28.682
28.014
27.366
26.743
26.145
25.575
25.033
24.522
24.042
23.593
23.175
22.787
22.429
22.1
21.796
21.518
21.262
21.027
20.811
20.61
20.424
20.25
20.085
19.928
19.776
19.627
19.477
19.325
19.167
19.002
18.825
18.636
18.431
18.208
17.965
17.701
17.412
17.097
16.753
16.379
15.972
15.53
15.05
14.532
13.973
13.374
12.734
12.05
11.323
10.552
9.735
8.871
7.959
6.997
5.981
4.912
3.785
2.601
1.357
0.051
-1.318
-2.753
-4.255
-5.825
-7.467
-9.181
-10.97
-12.834
-14.773
-16.788
-18.875
-21.034
-23.26
-25.549
-27.896
-30.296
-32.745
-35.241
-37.777
-40.349
-42.954
-45.59
-48.252
-50.933
-53.626
-56.318
-58.999
-61.658
-64.282
-66.856
-69.366
-71.796
-74.135
-76.376
-78.507
-80.517
-82.388
-84.099
-85.638
-86.997
-88.176
-89.174
-89.996
-90.652
-91.169
-91.584
-91.934
-92.243
-92.519
-92.759
-92.962
-93.132
-93.269
-93.376
-93.438
-93.432
-93.346
-93.173
-92.902
-92.503
-91.923
-91.076
-89.898
-88.356
-86.446
-84.19
-81.611
-78.749
-75.661
-72.427
-69.159
-65.96
-62.904
-60.045
-57.439
-55.151
-53.278
-51.944
-51.228
-51.183
-51.831
-53.172
-55.215
-57.924
-61.198
-64.899
-68.837
-72.84
-76.836
-80.754
-84.498
-88.076
-91.505
-94.839
-98.34
-102.227
-106.518
-111.265
-116.447
-121.824
-127.285
-132.62
-137.218
-140.554
-142.332
-142.254
-140.358
-137.102
-132.679
-127.428
-122.205
-117.875
-115.454
-116.026
-120.176
-127.813
-138.857
-153.292
-170.496
-189.209
-207.362
-220.967
-226.064
-220.956
-203.067
-172.131
-128.217
-66.813
11.683
107.179
219.848
342.334
473
608.675
738.552
852.597
932.344
959.614
929.242
844.196
717.857
566.679
400.788
228.494
57.81
-98.697
-224.812
-311.015
-355.588
-367.519
-362.197
-348.505
-330.426
-307.933
-277.524
-240.462
-201.236
-163.812
-132.763
-110.751
-97.54
-91.953
-92.285
-96.435
-102.445
-108.977
-114.555
-117.369
-116.612
-112.251
-104.553
-94.434
-82.948
-70.767
-58.839
-48.41
-40.09
-34.074
-30.314
-28.284
-27.48
-27.575
-28.083
-28.451
-28.366
-27.632
-26.181
-24.131
-21.541
-18.417
-14.799
-10.695
-6.134
-1.188
4.065
9.522
15.063
20.58
25.956
31.071
35.843
40.215
44.16
47.686
50.795
53.485
55.75
57.571
58.948
59.901
60.459
60.673
60.592
60.261
59.733
59.067
58.309
57.502
56.673
55.837
55.015
54.235
53.523
52.913
52.433
52.109
51.964
52.022
52.302
52.822
53.597
54.635
55.946
57.538
59.418
61.595
64.07
66.844
69.912
73.268
76.902
80.799
84.944
89.315
93.888
98.641
103.544
108.572
113.693
118.875
124.085
129.29
134.454
139.542
144.519
149.349
153.996
158.426
162.605
166.501
170.081
173.316
176.179
178.642
180.682
182.278
183.41
184.062
184.22
183.873
183.012
181.632
179.73
177.307
174.367
170.917
166.965
162.524
157.608
152.235
146.423
140.195
133.574
126.585
119.257
111.617
103.695
95.524
87.134
78.558
69.828
60.979
52.041
43.048
34.033
25.027
16.061
7.165
-1.632
-10.301
-18.814
-27.149
-35.283
-43.197
-50.872
-58.289
-65.429
-72.284
-78.849
-85.102
-91.03
-96.619
-101.858
-106.754
-111.327
-115.566
-119.46
-123.051
-126.375
-129.465
-132.363
-135.054
-137.493
-139.724
-141.82
-143.646
-145.041
-146.127
-146.908
-147.37
-147.905
-147.51
-145.208
-142.434
-139.63
-139.415
-144.921
-152.71
-160.495
-164.866
-161.128
-153.452
-145.374
-139.319
-139.286
-142.426
-145.851
-148.921
-149.875
-149.741
-149.835
-149.909
-150.13
-150.411
-150.482
-150.519
-150.658
-150.851
-151.086
-151.375
-151.712
-152.083
-152.479
-152.871
-153.224
-153.548
-153.849
-154.121
-154.36
-154.563
-154.725
-154.845
-154.926
-154.964
-154.955
-154.898
-154.792
-154.638
-154.435
-154.185
-153.888
-153.547
-153.162
-152.737
-152.273
-151.774
-151.242
-150.681
-150.092
-149.48
-148.849
-148.201
-147.54
-146.87
-146.194
-145.517
-144.841
-144.17
-143.506
-142.854
-142.216
-141.594
-140.991
-140.409
-139.852
-139.32
-138.816
-138.343
-137.903
-137.496
-137.127
-136.795
-136.502
-136.25
-136.04
-135.871
-135.745
-135.661
-135.621
-135.624
-135.67
-135.761
-135.897
-136.077
-136.301
-136.57
-136.882
-137.237
-137.633
-138.069
-138.544
-139.056
-139.604
-140.185
-140.799
-141.441
-142.109
-142.799
-143.507
-144.226
-144.951
-145.674
-146.387
-147.081
-147.749
-148.38
-148.969
-149.507
-149.986
-150.4
-150.743
-151.008
-151.188
-151.274
-151.254
-151.119
-150.855
-150.452
-149.897
-149.181
-148.297
-147.237
-145.996
-144.574
-142.968
-141.172
-139.18
-136.981
-134.57
-131.948
-129.124
-126.11
-122.933
-119.624
-116.222
-112.766
-109.289
-105.815
-102.356
-98.912
-95.481
-92.057
-88.65
-85.284
-81.978
-78.752
-75.618
-72.578
-69.619
-66.708
-63.802
-60.849
-57.813
-54.685
-51.48
-48.249
-45.059
-41.999
-39.136
-36.51
-34.155
-32.096
-30.355
-28.955
-27.935
-27.335
-27.215
-27.658
-28.714
-30.405
-32.711
-35.566
-38.875
-42.518
-46.386
-50.389
-54.439
-58.458
-62.382
-66.181
-69.828
-73.28
-76.524
-79.586
-82.586
-85.768
-89.405
-93.702
-98.795
-104.825
-111.741
-119.231
-126.762
-133.443
-138.243
-140.321
-139.148
-134.384
-126.154
-115.17
-102.467
-89.705
-79.075
-72.617
-71.874
-77.954
-91.139
-110.683
-135.325
-162.78
-189.358
-210.772
-222.747
-221.169
-202.519
-164.354
-104.941
-23.481
77.619
192.53
314.685
436.595
552.417
661.559
762.476
849.486
914.576
943.58
921.605
843.864
712.556
536.924
335.625
126.742
-71.951
-239.848
-361.661
-429.915
-445.183
-418.826
-370.943
-319.428
-276.02
-247.63
-228.9
-210.7
-188.861
-159.413
-126.167
-98.03
-78.309
-68.666
-67.987
-71.372
-76.418
-82.137
-86.719
-89.132
-88.85
-85.4
-79.19
-71.216
-62.126
-52.504
-43.395
-35.86
-30.489
-27.52
-26.733
-27.55
-29.538
-32.335
-35.42
-38.287
-40.584
-42.087
-42.725
-42.524
-41.485
-39.615
-36.961
-33.594
-29.604
-25.086
-20.154
-14.954
-9.629
-4.311
0.886
5.89
10.645
15.102
19.226
22.995
26.393
29.423
32.09
34.391
36.344
37.977
39.34
40.508
41.547
42.508
43.44
44.381
45.363
46.419
47.572
48.834
50.223
51.756
53.455
55.344
57.445
59.776
62.348
65.171
68.251
71.599
75.221
79.121
83.303
87.769
92.519
97.557
102.88
108.481
114.349
120.469
126.824
133.394
140.158
147.09
154.162
161.345
168.61
175.925
183.258
190.574
197.838
205.015
212.068
218.96
225.655
232.115
238.304
244.186
249.726
254.89
259.647
263.965
267.816
271.173
274.013
276.314
278.058
279.229
279.814
279.803
279.19
277.973
276.149
273.724
270.703
267.096
262.915
258.177
252.899
247.102
240.809
234.046
226.841
219.224
211.226
202.882
194.226
185.296
176.13
166.766
157.243
147.602
137.882
128.122
118.363
108.642
98.996
89.461
80.072
70.862
61.861
53.1
44.603
36.397
28.503
20.942
13.729
6.88
0.408
-5.68
-11.374
-16.672
-21.57
-26.07
-30.173
-33.887
-37.217
-40.173
-42.768
-45.015
-46.93
-48.528
-49.831
-50.856
-51.624
-52.159
-52.48
-52.611
-52.574
-52.392
-52.086
-51.678
-51.189
-50.639
-50.047
-49.431
-48.809
-48.195
-47.606
-47.052
-46.548
-46.102
-45.725
-45.422
-45.202
-45.067
-45.022
-45.068
-45.204
-45.431
-45.744
-46.141
-46.615
-47.16
-47.769
-48.432
-49.141
-49.884
-50.652
-51.432
-52.214
-52.986
-53.736
-54.453
-55.126
-55.744
-56.299
-56.778
-57.175
-57.479
-57.685
-57.783
-57.769
-57.637
-57.381
-56.999
-56.487
-55.842
-55.065
-54.153
-53.109
-51.932
-50.626
-49.194
-47.638
-45.965
-44.18
-42.288
-40.298
-38.217
-36.053
-33.816
-31.513
-29.155
-26.75
-24.307
-21.837
-19.346
-16.845
-14.342
-11.845
-9.362
-6.902
-4.471
-2.076
0.275
2.577
4.824
7.011
9.134
11.19
13.175
15.085
16.919
18.673
20.348
21.94
23.449
24.875
26.218
27.48
28.662
29.768
30.799
31.759
32.65
33.477
34.241
34.948
35.598
36.196
36.744
37.247
37.708
38.13
38.517
38.873
39.199
39.501
39.779
40.036
40.273
40.491
40.695
40.885
41.064
41.235
41.402
41.568
41.741
41.923
42.118
42.329
42.558
42.809
43.083
43.381
43.702
44.047
44.42
44.825
45.268
45.756
46.295
46.892
47.556
48.294
49.114
50.02
51.009
52.087
53.26
54.535
55.927
57.442
59.079
60.837
62.713
64.697
66.77
68.9
71.041
73.161
75.241
77.27
79.252
81.188
83.079
84.929
86.746
88.537
90.317
92.086
93.839
95.592
97.373
99.239
101.272
103.525
106.018
108.756
111.716
114.863
118.14
121.466
124.738
127.868
130.777
133.416
135.757
137.754
139.357
140.493
141.058
140.987
140.249
138.832
136.745
134.039
130.797
127.141
123.254
119.285
115.341
111.485
107.724
104.031
100.423
96.948
93.532
90.099
86.538
82.664
78.488
74.05
69.111
63.355
56.73
49.22
41.165
33.286
25.813
18.91
13.187
9.219
7.28
7.489
8.985
10.077
9.674
6.808
0.402
-10.253
-25.569
-45.387
-67.719
-88.994
-105.522
-113.447
-108.958
-88.599
-49.167
11.982
94.009
191.998
300.339
412.455
524.442
637.58
749.864
853.889
937.722
981.935
970.272
899.283
773.248
604.813
413.361
214.459
23.411
-140.631
-265.636
-347.881
-388.28
-398.691
-392.278
-371.955
-342.324
-308.08
-270.869
-240.048
-219.967
-206.169
-196.605
-186.577
-174.302
-164.458
-158.862
-158.085
-161.633
-166.358
-170.413
-172.79
-172.385
-169.209
-163.565
-155.726
-146.275
-135.725
-124.525
-113.521
-103.776
-95.921
-90.202
-86.596
-84.797
-84.555
-85.696
-87.868
-90.636
-93.723
-96.953
-100.276
-103.765
-107.4
-111.094
-114.748
-118.212
-121.372
-124.168
-126.536
-128.446
-129.899
-130.905
-131.51
-131.775
-131.735
-131.418
-130.836
-129.978
-128.862
-127.529
-126.043
-124.515
-123.023
-121.613
-120.319
-119.151
-118.108
-117.186
-116.354
-115.557
-114.754
-113.912
-113.003
-112.018
-110.932
-109.712
-108.325
-106.728
-104.886
-102.774
-100.369
-97.647
-94.601
-91.227
-87.527
-83.521
-79.214
-74.608
-69.715
-64.543
-59.097
-53.382
-47.383
-41.073
-34.441
-27.493
-20.25
-12.737
-4.966
3.074
11.384
19.936
28.68
37.571
46.564
55.634
64.754
73.808
82.595
91.005
98.977
106.537
113.952
121.431
128.957
136.621
144.561
152.545
160.472
168.229
174.652
178.572
179.738
177.477
172.897
169.845
168.997
169.87
170.389
162.59
146.457
130.259
125.415
150.916
211.551
293.684
376.129
428.223
434.547
401.496
343.083
281.75
230.159
185.077
143.886
103.96
67.09
43.625
36.218
39.211
46.215
47.622
40.175
28.726
16.066
4.233
-6.158
-17.433
-29.846
-41.87
-52.749
-61.876
-69.019
-74.47
-78.284
-80.385
-81.103
-81.078
-80.765
-80.386
-80.051
-79.765
-79.599
-79.719
-80.2
-81.008
-82.117
-83.505
-85.144
-87.057
-89.24
-91.631
-94.194
-96.88
-99.564
-102.159
-104.609
-106.83
-108.815
-110.594
-112.103
-113.279
-114.284
-115.305
-116.26
-117.181
-118.113
-118.706
-119.99
-122.974
-126.308
-129.603
-130.318
-125.412
-118.276
-111.17
-107.455
-111.737
-119.921
-128.539
-135.212
-136.013
-133.734
-131.201
-129.029
-128.933
-129.895
-130.61
-131.317
-131.841
-132.26
-132.831
-133.376
-133.756
-134.015
-134.163
-134.179
-134.067
-133.834
-133.485
-133.044
-132.541
-131.965
-131.305
-130.569
-129.758
-128.878
-127.934
-126.929
-125.864
-124.746
-123.582
-122.379
-121.144
-119.884
-118.605
-117.314
-116.019
-114.727
-113.444
-112.177
-110.931
-109.711
-108.523
-107.372
-106.261
-105.196
-104.179
-103.213
-102.303
-101.451
-100.658
-99.927
-99.259
-98.656
-98.12
-97.65
-97.248
-96.914
-96.648
-96.449
-96.317
-96.249
-96.246
-96.303
-96.421
-96.594
-96.822
-97.101
-97.427
-97.797
-98.207
-98.654
-99.133
-99.64
-100.17
-100.719
-101.282
-101.854
-102.43
-103.005
-103.573
-104.13
-104.669
-105.185
-105.673
-106.124
-106.534
-106.895
-107.201
-107.444
-107.617
-107.713
-107.725
-107.647
-107.47
-107.19
-106.799
-106.291
-105.66
-104.9
-104.006
-102.972
-101.794
-100.468
-98.991
-97.36
-95.574
-93.63
-91.53
-89.273
-86.86
-84.294
-81.576
-78.71
-75.701
-72.554
-69.277
-65.877
-62.364
-58.749
-55.047
-51.272
-47.44
-43.567
-39.669
-35.766
-31.879
-28.027
-24.227
-20.496
-16.852
-13.314
-9.903
-6.637
-3.533
-0.604
2.138
4.68
7.006
9.105
10.973
12.606
14.007
15.17
16.077
16.713
17.071
17.146
16.942
16.465
15.715
14.703
13.461
12.022
10.429
8.723
6.934
5.087
3.206
1.326
-0.503
-2.216
-3.743
-5.033
-6.059
-6.813
-7.336
-7.649
-7.733
-7.704
-7.788
-8.206
-9.219
-10.916
-13.119
-15.843
-19.388
-23.783
-28.809
-34.043
-38.657
-42.258
-45.14
-47.23
-47.991
-47.165
-44.759
-41.476
-38.992
-38.344
-39.772
-43.832
-51.283
-62.999
-78.399
-94.393
-107.393
-113.985
-114.471
-112.719
-108.142
-96.924
-70.201
-14.856
72.881
189.322
325.685
467.812
607.447
739.441
855.442
946.146
996.686
991.649
925.54
799.916
627.709
432.372
236.122
62.571
-70.831
-161.833
-215.084
-243.323
-261.462
-274.264
-280.854
-277.054
-258.05
-225.501
-184.922
-142.587
-104.182
-72.635
-49.481
-35.218
-29.017
-29.759
-35.732
-44.638
-54.836
-64.68
-72.1
-75.987
-75.997
-72.135
-65.179
-56.203
-45.964
-35.462
-25.985
-18.213
-12.459
-8.821
-6.949
-6.437
-6.974
-8.063
-9.125
-9.837
-10.026
-9.629
-8.752
-7.448
-5.739
-3.712
-1.46
0.95
3.463
6.053
8.711
11.39
14.02
16.528
18.838
20.906
22.713
24.248
25.512
26.51
27.259
27.787
28.129
28.314
28.369
28.319
28.193
28.028
27.862
27.736
27.692
27.764
27.986
28.388
28.995
29.831
30.92
32.277
33.92
35.866
38.131
40.729
43.674
46.975
50.64
54.673
59.076
63.847
68.982
74.471
80.304
86.467
92.944
99.714
106.756
114.045
121.551
129.246
137.096
145.066
153.12
161.22
169.327
177.399
185.396
193.276
200.998
208.52
215.801
222.8
229.479
235.798
241.722
247.215
252.245
256.78
260.791
264.254
267.144
269.44
271.126
272.187
272.611
272.391
271.523
270.005
267.841
265.036
261.6
257.546
252.889
247.65
241.85
235.514
228.671
221.35
213.584
205.407
196.856
187.968
178.783
169.342
159.684
149.852
139.888
129.833
119.729
109.616
99.536
89.527
79.628
69.876
60.308
50.957
41.856
33.034
24.519
16.336
8.508
1.056
-6.005
-12.659
-18.895
-24.704
-30.079
-35.017
-39.516
-43.578
-47.208
-50.412
-53.199
-55.58
-57.568
-59.178
-60.426
-61.331
-61.909
-62.183
-62.172
-61.899
-61.385
-60.654
-59.728
-58.631
-57.386
-56.016
-54.543
-52.989
-51.375
-49.72
-48.042
-46.36
-44.689
-43.045
-41.442
-39.891
-38.405
-36.992
-35.661
-34.419
-33.272
-32.222
-31.274
-30.429
-29.687
-29.049
-28.512
-28.076
-27.737
-27.492
-27.337
-27.267
-27.277
-27.361
-27.512
-27.725
-27.992
-28.307
-28.665
-29.058
-29.48
-29.928
-30.394
-30.875
-31.367
-31.865
-32.365
-32.866
-33.365
-33.86
-34.349
-34.833
-35.309
-35.78
-36.244
-36.702
-37.155
-37.603
-38.047
-38.487
-38.925
-39.362
-39.798
-40.235
-40.674
-41.116
-41.563
-42.016
-42.475
-42.943
-43.42
-43.906
-44.402
-44.909
-45.426
-45.954
-46.493
-47.041
-47.598
-48.163
-48.735
-49.312
-49.892
-50.473
-51.055
-51.635
-52.211
-52.783
-53.348
-53.906
-54.455
-54.996
-55.527
-56.048
-56.559
-57.061
-57.553
-58.037
-58.514
-58.985
-59.452
-59.915
-60.376
-60.837
-61.297
-61.758
-62.223
-62.691
-63.165
-63.647
-64.139
-64.642
-65.159
-65.693
-66.244
-66.815
-67.407
-68.021
-68.657
-69.318
-70.003
-70.713
-71.447
-72.206
-72.988
-73.793
-74.618
-75.459
-76.313
-77.174
-78.037
-78.894
-79.74
-80.568
-81.373
-82.149
-82.892
-83.598
-84.261
-84.878
-85.441
-85.945
-86.381
-86.737
-87.001
-87.165
-87.219
-87.155
-86.968
-86.649
-86.194
-85.603
-84.872
-83.995
-82.967
-81.772
-80.402
-78.857
-77.146
-75.283
-73.295
-71.204
-69.033
-66.819
-64.587
-62.354
-60.129
-57.897
-55.644
-53.366
-51.071
-48.784
-46.53
-44.312
-42.127
-39.971
-37.816
-35.643
-33.425
-31.108
-28.659
-26.074
-23.37
-20.618
-17.909
-15.313
-12.886
-10.66
-8.656
-6.921
-5.495
-4.407
-3.699
-3.393
-3.523
-4.156
-5.334
-7.065
-9.324
-12.017
-15.009
-18.162
-21.345
-24.462
-27.433
-30.182
-32.683
-34.881
-36.745
-38.399
-39.914
-41.351
-42.83
-44.321
-45.795
-47.475
-49.566
-52.068
-55.149
-58.788
-62.777
-67.29
-72.271
-77.271
-82
-86.199
-89.336
-91.292
-92.24
-92.139
-91.624
-91.588
-92.68
-95.734
-101.69
-111.172
-123.252
-135.115
-143.329
-144.45
-139.097
-131.827
-123.201
-110.168
-82.081
-22.524
73.833
203.154
351.892
498.561
633.069
751.956
852.475
933.854
984.224
987.372
936.317
829.607
676.686
496.307
302.542
110.669
-62.448
-205.312
-306.421
-362.371
-381.567
-375.696
-358.138
-336.972
-313.323
-285.977
-252.963
-215.86
-178.43
-144.326
-117.468
-99.351
-89.211
-85.748
-86.886
-90.514
-95.348
-100.171
-103.325
-103.433
-99.857
-92.568
-82.195
-69.753
-56.087
-42.031
-28.736
-17.311
-8.385
-2.194
1.391
2.764
2.263
0.232
-2.809
-6.333
-9.999
-13.604
-17.052
-20.304
-23.222
-25.648
-27.511
-28.787
-29.469
-29.56
-29.038
-27.902
-26.207
-24.049
-21.531
-18.735
-15.702
-12.473
-9.109
-5.693
-2.335
0.873
3.881
6.651
9.162
11.401
13.355
15.04
16.499
17.78
18.932
19.991
20.98
21.928
22.874
23.865
24.959
26.199
27.618
29.244
31.104
33.219
35.608
38.28
41.231
44.457
47.958
51.734
55.79
60.122
64.724
69.584
74.693
80.037
85.604
91.378
97.34
103.47
109.747
116.149
122.656
129.242
135.879
142.536
149.182
155.783
162.307
168.717
174.98
181.061
186.925
192.539
197.871
202.891
207.567
211.87
215.774
219.252
222.282
224.84
226.908
228.469
229.508
230.014
229.977
229.389
228.247
226.549
224.297
221.495
218.15
214.273
209.877
204.978
199.595
193.75
187.467
180.771
173.692
166.258
158.503
150.46
142.162
133.645
124.944
116.096
107.137
98.102
89.029
79.952
70.906
61.924
53.04
44.284
35.687
27.277
19.081
11.124
3.43
-3.98
-11.086
-17.872
-24.322
-30.424
-36.169
-41.547
-46.555
-51.19
-55.45
-59.338
-62.858
-66.015
-68.818
-71.277
-73.403
-75.208
-76.707
-77.916
-78.849
-79.525
-79.96
-80.172
-80.179
-79.998
-79.646
-79.142
-78.503
-77.744
-76.883
-75.936
-74.918
-73.842
-72.724
-71.575
-70.407
-69.232
-68.058
-66.895
-65.75
-64.629
-63.537
-62.479
-61.457
-60.473
-59.529
-58.623
-57.755
-56.923
-56.124
-55.356
-54.614
-53.896
-53.196
-52.512
-51.839
-51.174
-50.512
-49.851
-49.187
-48.516
-47.836
-47.145
-46.439
-45.717
-44.978
-44.221
-43.444
-42.648
-41.834
-41.001
-40.151
-39.286
-38.408
-37.518
-36.622
-35.721
-34.82
-33.923
-33.036
-32.164
-31.311
-30.485
-29.689
-28.93
-28.214
-27.545
-26.928
-26.369
-25.872
-25.441
-25.08
-24.794
-24.586
-24.459
-24.416
-24.459
-24.59
-24.811
-25.122
-25.524
-26.019
-26.604
-27.281
-28.049
-28.907
-29.854
-30.889
-32.008
-33.211
-34.493
-35.851
-37.281
-38.78
-40.343
-41.966
-43.645
-45.374
-47.151
-48.97
-50.827
-52.717
-54.636
-56.577
-58.538
-60.511
-62.494
-64.481
-66.469
-68.453
-70.43
-72.398
-74.352
-76.29
-78.209
-80.106
-81.978
-83.821
-85.632
-87.408
-89.147
-90.847
-92.506
-94.123
-95.696
-97.224
-98.707
-100.142
-101.529
-102.865
-104.151
-105.383
-106.562
-107.686
-108.755
-109.769
-110.728
-111.631
-112.477
-113.267
-113.998
-114.667
-115.273
-115.811
-116.278
-116.671
-116.985
-117.216
-117.361
-117.418
-117.387
-117.264
-117.048
-116.735
-116.326
-115.816
-115.202
-114.478
-113.635
-112.669
-111.576
-110.352
-108.995
-107.503
-105.873
-104.107
-102.207
-100.173
-98.006
-95.701
-93.244
-90.634
-87.882
-85.003
-82.022
-78.963
-75.847
-72.701
-69.563
-66.459
-63.406
-60.404
-57.433
-54.489
-51.581
-48.73
-45.976
-43.34
-40.822
-38.424
-36.136
-33.947
-31.851
-29.816
-27.785
-25.732
-23.667
-21.637
-19.739
-18.043
-16.588
-15.399
-14.48
-13.851
-13.546
-13.583
-13.963
-14.685
-15.751
-17.202
-19.117
-21.524
-24.393
-27.636
-31.1
-34.668
-38.275
-41.87
-45.398
-48.778
-51.936
-54.853
-57.592
-60.259
-62.891
-65.435
-67.87
-70.319
-73.082
-76.523
-80.848
-86.035
-92.078
-99.088
-107.041
-115.621
-123.989
-131.047
-136.084
-138.872
-139.314
-137.24
-132.724
-126.315
-119.426
-114.144
-112.122
-114.275
-121.448
-133.379
-147.926
-162.668
-174.305
-181.465
-187.552
-194.262
-198.915
-192.667
-159.199
-86.423
26.858
171.828
331.557
490.87
641.095
777.028
891.499
973.106
1009.231
989.03
912.508
788.591
627.379
443.335
249.129
56.978
-114.183
-249.278
-341.035
-389.623
-407.322
-409.035
-402.505
-390.654
-371.264
-340.451
-299.719
-253.605
-207.269
-166.05
-132.919
-108.854
-93.809
-86.657
-85.978
-90.235
-97.667
-106.607
-115.081
-121.113
-123.69
-122.588
-118.086
-110.978
-102.198
-92.615
-83.444
-75.996
-70.944
-68.502
-68.555
-70.613
-74.17
-78.787
-83.863
-88.781
-93.213
-96.969
-99.987
-102.328
-103.974
-104.897
-105.151
-104.797
-103.884
-102.476
-100.624
-98.408
-95.977
-93.471
-91
-88.647
-86.439
-84.4
-82.553
-80.907
-79.469
-78.231
-77.174
-76.285
-75.555
-74.958
-74.46
-74
-73.495
-72.876
-72.087
-71.078
-69.815
-68.268
-66.406
-64.211
-61.675
-58.785
-55.531
-51.899
-47.872
-43.438
-38.593
-33.337
-27.677
-21.62
-15.173
-8.348
-1.158
6.383
14.259
22.452
30.947
39.723
48.755
58.013
67.467
77.082
86.822
96.65
106.525
116.405
126.25
136.016
145.662
155.147
164.427
173.461
182.207
190.626
198.679
206.327
213.535
220.268
226.495
232.186
237.314
241.854
245.785
249.088
251.748
253.752
255.09
255.756
255.747
255.062
253.706
251.685
249.009
245.691
241.748
237.2
232.068
226.378
220.156
213.431
206.235
198.6
190.561
182.154
173.416
164.383
155.096
145.593
135.914
126.097
116.182
106.207
96.21
86.228
76.298
66.454
56.731
47.16
37.772
28.596
19.66
10.987
2.602
-5.477
-13.229
-20.639
-27.694
-34.381
-40.692
-46.619
-52.157
-57.303
-62.056
-66.418
-70.391
-73.98
-77.192
-80.034
-82.515
-84.648
-86.442
-87.912
-89.071
-89.933
-90.514
-90.83
-90.896
-90.73
-90.348
-89.767
-89.004
-88.076
-87
-85.791
-84.465
-83.037
-81.522
-79.934
-78.286
-76.592
-74.862
-73.108
-71.342
-69.571
-67.807
-66.056
-64.326
-62.625
-60.956
-59.327
-57.74
-56.2
-54.709
-53.27
-51.885
-50.555
-49.28
-48.06
-46.895
-45.784
-44.726
-43.718
-42.758
-41.845
-40.974
-40.142
-39.348
-38.586
-37.854
-37.148
-36.464
-35.799
-35.148
-34.508
-33.874
-33.244
-32.612
-31.976
-31.333
-30.679
-30.011
-29.327
-28.623
-27.9
-27.153
-26.382
-25.584
-24.76
-23.908
-23.028
-22.119
-21.183
-20.218
-19.228
-18.212
-17.172
-16.112
-15.032
-13.935
-12.825
-11.704
-10.575
-9.442
-8.31
-7.18
-6.059
-4.948
-3.853
-2.777
-1.724
-0.698
0.299
1.263
2.191
3.081
3.929
4.734
5.493
6.204
6.867
7.479
8.04
8.548
9.005
9.409
9.762
10.063
10.314
10.516
10.671
10.781
10.848
10.875
10.864
10.818
10.741
10.635
10.504
10.349
10.174
9.98
9.77
9.544
9.305
9.054
8.792
8.52
8.238
7.947
7.648
7.339
7.022
6.695
6.357
6.008
5.646
5.269
4.876
4.465
4.034
3.58
3.102
2.595
2.058
1.488
0.881
0.235
-0.452
-1.182
-1.955
-2.771
-3.628
-4.523
-5.454
-6.416
-7.406
-8.42
-9.453
-10.501
-11.561
-12.629
-13.702
-14.774
-15.84
-16.891
-17.918
-18.912
-19.863
-20.758
-21.587
-22.336
-22.991
-23.546
-23.99
-24.312
-24.499
-24.532
-24.4
-24.097
-23.622
-22.978
-22.177
-21.23
-20.159
-19
-17.787
-16.55
-15.321
-14.11
-12.923
-11.772
-10.663
-9.61
-8.613
-7.65
-6.689
-5.709
-4.677
-3.561
-2.319
-0.873
0.841
2.876
5.274
8.037
11.147
14.582
18.305
22.262
26.383
30.556
34.652
38.577
42.238
45.561
48.464
50.821
52.536
53.523
53.717
53.089
51.617
49.323
46.263
42.541
38.305
33.721
28.926
24.039
19.185
14.368
9.57
4.718
-0.428
-5.95
-11.759
-17.805
-23.999
-30.156
-36.179
-41.794
-46.358
-49.638
-51.704
-52.529
-52.308
-51.23
-49.215
-46.484
-43.788
-41.45
-39.645
-38.929
-39.541
-41.665
-45.69
-51.794
-59.691
-68.989
-79.028
-86.957
-88.485
-81.597
-64.9
-38.678
-6.764
33.907
89.746
163.511
260.522
376.85
501.358
629.737
753.949
865.576
957.298
1012.125
1016.503
966.843
867.19
731.256
572.51
400.938
225.259
56.092
-90.398
-202.094
-273.9
-309.979
-324.434
-326.9
-320.927
-306.25
-278.7
-238.935
-192.043
-143.445
-98.92
-61.883
-33.519
-14.47
-4.05
-0.758
-2.886
-8.535
-16.089
-24.043
-30.752
-34.694
-35.137
-32.198
-26.498
-18.934
-10.33
-1.461
6.736
13.253
17.518
19.462
19.314
17.556
14.691
11.135
7.35
3.826
0.862
-1.402
-2.895
-3.636
-3.653
-2.954
-1.594
0.34
2.794
5.704
8.979
12.508
16.137
19.721
23.171
26.425
29.442
32.193
34.64
36.754
38.54
40.013
41.184
42.067
42.668
43.01
43.143
43.137
43.071
43.012
43.012
43.115
43.359
43.78
44.41
45.273
46.382
47.75
49.398
51.348
53.625
56.246
59.222
62.558
66.257
70.322
74.754
79.55
84.706
90.215
96.07
102.262
108.782
115.616
122.744
130.143
137.786
145.643
153.683
161.869
170.165
178.529
186.924
195.307
203.637
211.872
219.968
227.882
235.571
242.993
250.105
256.865
263.232
269.169
274.638
279.603
284.033
287.896
291.166
293.818
295.83
297.184
297.866
297.864
297.169
295.778
293.691
290.911
287.447
283.309
278.512
273.074
267.019
260.37
253.156
245.406
237.153
228.433
219.283
209.742
199.85
189.651
179.188
168.505
157.648
146.661
135.59
124.48
113.376
102.322
91.36
80.532
69.878
59.436
49.244
39.334
29.738
20.485
11.6
3.106
-4.976
-12.63
-19.842
-26.601
-32.9
-38.732
-44.096
-48.993
-53.427
-57.403
-60.931
-64.022
-66.69
-68.95
-70.821
-72.321
-73.471
-74.294
-74.814
-75.054
-75.041
-74.799
-74.356
-73.738
-72.971
-72.082
-71.095
-70.035
-68.927
-67.792
-66.65
-65.523
-64.428
-63.382
-62.4
-61.497
-60.683
-59.969
-59.365
-58.877
-58.511
-58.27
-58.156
-58.171
-58.313
-58.581
-58.971
-59.48
-60.101
-60.829
-61.656
-62.575
-63.577
-64.651
-65.79
-66.981
-68.216
-69.483
-70.774
-72.079
-73.389
-74.695
-75.99
-77.267
-78.519
-79.741
-80.927
-82.073
-83.177
-84.235
-85.244
-86.205
-87.116
-87.978
-88.792
-89.559
-90.281
-90.96
-91.601
-92.204
-92.776
-93.319
-93.838
-94.339
-94.827
-95.307
-95.785
-96.268
-96.762
-97.271
-97.803
-98.361
-98.951
-99.577
-100.242
-100.951
-101.706
-102.509
-103.362
-104.268
-105.227
-106.24
-107.308
-108.431
-109.609
-110.841
-112.127
-113.467
-114.859
-116.302
-117.796
-119.339
-120.93
-122.567
-124.248
-125.971
-127.732
-129.529
-131.357
-133.214
-135.095
-136.995
-138.911
-140.839
-142.776
-144.718
-146.661
-148.603
-150.542
-152.474
-154.399
-156.313
-158.214
-160.1
-161.969
-163.818
-165.644
-167.446
-169.22
-170.964
-172.674
-174.347
-175.982
-177.573
-179.118
-180.613
-182.056
-183.445
-184.776
-186.047
-187.258
-188.408
-189.496
-190.523
-191.486
-192.386
-193.222
-193.992
-194.695
-195.327
-195.884
-196.362
-196.759
-197.071
-197.297
-197.433
-197.477
-197.428
-197.289
-197.058
-196.736
-196.321
-195.811
-195.203
-194.494
-193.681
-192.762
-191.733
-190.587
-189.322
-187.942
-186.445
-184.829
-183.09
-181.217
-179.204
-177.057
-174.779
-172.383
-169.881
-167.288
-164.634
-161.961
-159.305
-156.705
-154.183
-151.743
-149.392
-147.14
-144.989
-142.954
-141.026
-139.174
-137.376
-135.618
-133.872
-132.116
-130.298
-128.333
-126.157
-123.713
-120.97
-117.939
-114.631
-111.065
-107.285
-103.342
-99.317
-95.333
-91.482
-87.826
-84.436
-81.356
-78.666
-76.483
-74.886
-73.942
-73.691
-74.136
-75.289
-77.128
-79.566
-82.487
-85.722
-89.076
-92.448
-95.76
-98.909
-101.922
-104.816
-107.656
-110.708
-114.095
-117.751
-121.642
-125.67
-129.646
-133.543
-137.165
-139.909
-141.515
-141.955
-141.162
-139.363
-136.732
-133.099
-128.549
-123.746
-119.224
-115.523
-113.21
-112.647
-114.453
-119.26
-127.637
-138.598
-149.3
-158.192
-164.203
-167.241
-169.756
-168.206
-153.668
-117.787
-50.558
47.548
164.362
288.773
408.038
517.702
623.563
724.218
814.775
883.312
909.871
886.96
815.566
703.384
566.278
412.484
248.796
85.361
-66.936
-192.858
-282.411
-335.952
-361.869
-371.698
-372.327
-364.51
-345.071
-312.6
-269.956
-222.509
-176.336
-135.318
-101.229
-74.954
-56.657
-45.967
-41.904
-42.961
-47.494
-53.957
-60.774
-66.378
-69.378
-69.078
-65.505
-59.044
-50.361
-40.227
-29.464
-19.067
-9.97
-2.589
3.06
7.19
10.168
12.312
13.94
15.462
17.26
19.517
22.243
25.315
28.617
32.145
35.913
39.928
44.127
48.388
52.64
56.842
60.959
64.959
68.777
72.333
75.61
78.647
81.495
84.235
86.887
89.412
91.791
94.008
96.065
98.008
99.861
101.63
103.345
105.047
106.783
108.616
110.575
112.658
114.863
117.184
119.635
122.259
125.086
128.137
131.437
134.996
138.834
142.977
147.433
152.196
157.257
162.604
168.229
174.131
180.307
186.743
193.425
200.332
207.442
214.732
222.179
229.75
237.413
245.131
252.872
260.605
268.296
275.91
283.412
290.764
297.929
304.872
311.558
317.947
324.006
329.699
334.992
339.856
344.261
348.179
351.585
354.456
356.772
358.516
359.674
360.233
360.186
359.527
358.255
356.369
353.875
350.779
347.092
342.827
338.001
332.633
326.745
320.362
313.509
306.217
298.515
290.436
282.015
273.286
264.286
255.052
245.624
236.04
226.338
216.558
206.738
196.917
187.132
177.419
167.814
158.351
149.062
139.977
131.125
122.533
114.224
106.221
98.544
91.21
84.232
77.624
71.394
65.549
60.094
55.029
50.355
46.068
42.162
38.631
35.464
32.652
30.181
28.036
26.202
24.663
23.399
22.392
21.623
21.07
20.714
20.534
20.509
20.618
20.841
21.159
21.551
21.999
22.484
22.991
23.503
24.004
24.481
24.922
25.314
25.649
25.916
26.111
26.226
26.256
26.2
26.054
25.817
25.49
25.074
24.57
23.981
23.312
22.566
21.748
20.864
19.919
18.92
17.872
16.783
15.659
14.506
13.332
12.142
10.944
9.744
8.549
7.365
6.198
5.053
3.937
2.854
1.809
0.805
-0.154
-1.064
-1.924
-2.73
-3.481
-4.176
-4.813
-5.393
-5.916
-6.38
-6.787
-7.138
-7.433
-7.674
-7.861
-7.996
-8.08
-8.115
-8.1
-8.038
-7.931
-7.779
-7.585
-7.35
-7.077
-6.767
-6.423
-6.048
-5.644
-5.214
-4.76
-4.287
-3.796
-3.292
-2.776
-2.253
-1.725
-1.196
-0.668
-0.146
0.369
0.872
1.362
1.834
2.286
2.714
3.115
3.485
3.82
4.117
4.372
4.58
4.738
4.841
4.886
4.869
4.786
4.633
4.408
4.107
3.728
3.268
2.725
2.098
1.386
0.588
-0.297
-1.269
-2.327
-3.472
-4.703
-6.018
-7.416
-8.895
-10.453
-12.087
-13.794
-15.57
-17.412
-19.315
-21.273
-23.282
-25.334
-27.423
-29.543
-31.684
-33.84
-36.001
-38.158
-40.302
-42.423
-44.51
-46.555
-48.546
-50.475
-52.332
-54.106
-55.788
-57.368
-58.838
-60.187
-61.408
-62.491
-63.429
-64.213
-64.838
-65.296
-65.584
-65.695
-65.627
-65.377
-64.941
-64.319
-63.511
-62.516
-61.339
-59.982
-58.451
-56.754
-54.899
-52.898
-50.763
-48.51
-46.152
-43.706
-41.19
-38.625
-36.031
-33.432
-30.849
-28.303
-25.818
-23.416
-21.118
-18.948
-16.921
-15.057
-13.37
-11.878
-10.6
-9.551
-8.738
-8.163
-7.828
-7.735
-7.891
-8.303
-8.972
-9.899
-11.084
-12.523
-14.217
-16.155
-18.313
-20.659
-23.15
-25.749
-28.436
-31.203
-34.051
-36.964
-39.906
-42.825
-45.669
-48.385
-50.937
-53.29
-55.377
-57.232
-58.986
-60.832
-63.07
-65.964
-69.641
-74.182
-79.649
-85.837
-92.398
-98.946
-104.825
-109.444
-112.413
-113.364
-112.114
-108.99
-104.527
-99.195
-93.819
-89.243
-86.351
-86.215
-89.61
-96.892
-107.98
-122.641
-140.517
-159.596
-177.194
-191.746
-200.424
-202.964
-199.458
-183.349
-149.993
-93.761
-10.187
92.381
206.001
323.278
436.695
549.142
659.826
761.019
842.069
885.448
879.674
824.043
724.604
592.951
438.236
268.471
93.501
-72.713
-210.655
-307.663
-361.166
-379.256
-379.739
-374.262
-366.328
-354.399
-332.655
-300.46
-262.038
-222.161
-185.592
-154.622
-129.84
-111.658
-99.964
-94.191
-93.331
-96.138
-101.801
-109.449
-117.756
-125.385
-131.037
-134.028
-134.51
-132.819
-129.226
-124.167
-118.267
-112.294
-107.172
-103.392
-100.924
-99.609
-99.176
-99.332
-99.861
-100.46
-100.746
-100.535
-99.807
-98.609
-97.091
-95.363
-93.472
-91.495
-89.523
-87.617
-85.842
-84.249
-82.862
-81.725
-80.872
-80.321
-80.089
-80.173
-80.558
-81.222
-82.136
-83.264
-84.582
-86.064
-87.685
-89.42
-91.237
-93.099
-94.97
-96.813
-98.59
-100.266
-101.803
-103.168
-104.329
-105.261
-105.939
-106.339
-106.437
-106.208
-105.629
-104.68
-103.343
-101.602
-99.444
-96.859
-93.841
-90.388
-86.501
-82.187
-77.451
-72.306
-66.764
-60.844
-54.564
-47.949
-41.024
-33.817
-26.36
-18.687
-10.834
-2.839
5.258
13.415
21.589
29.737
37.813
45.773
53.573
61.167
68.512
75.565
82.283
88.628
94.559
100.041
105.039
109.521
113.458
116.825
119.598
121.76
123.293
124.187
124.433
124.026
122.965
121.251
118.89
115.89
112.263
108.025
103.193
97.79
91.839
85.366
78.402
70.977
63.125
54.88
46.28
37.36
28.16
18.719
9.075
-0.73
-10.657
-20.668
-30.722
-40.782
-50.811
-60.774
-70.637
-80.369
-89.939
-99.321
-108.488
-117.418
-126.089
-134.483
-142.584
-150.378
-157.852
-164.999
-171.811
-178.283
-184.413
-190.2
-195.647
-200.758
-205.536
-209.989
-214.125
-217.953
-221.484
-224.729
-227.702
-230.415
-232.883
-235.121
-237.144
-238.965
-240.602
-242.067
-243.375
-244.541
-245.576
-246.492
-247.303
-248.018
-248.647
-249.2
-249.685
-250.109
-250.481
-250.804
-251.085
-251.328
-251.535
-251.711
-251.857
-251.976
-252.068
-252.136
-252.179
-252.199
-252.195
-252.169
-252.119
-252.046
-251.949
-251.829
-251.684
-251.516
-251.324
-251.109
-250.872
-250.614
-250.338
-250.045
-249.737
-249.418
-249.09
-248.757
-248.423
-248.09
-247.763
-247.447
-247.145
-246.862
-246.602
-246.369
-246.169
-246.004
-245.878
-245.794
-245.756
-245.766
-245.826
-245.938
-246.104
-246.324
-246.599
-246.928
-247.312
-247.749
-248.237
-248.775
-249.359
-249.987
-250.654
-251.356
-252.09
-252.849
-253.628
-254.423
-255.228
-256.036
-256.841
-257.638
-258.419
-259.18
-259.912
-260.611
-261.27
-261.882
-262.443
-262.947
-263.388
-263.761
-264.063
-264.288
-264.434
-264.496
-264.473
-264.361
-264.16
-263.867
-263.483
-263.005
-262.435
-261.773
-261.019
-260.176
-259.245
-258.227
-257.125
-255.942
-254.68
-253.341
-251.929
-250.447
-248.898
-247.285
-245.612
-243.882
-242.101
-240.271
-238.399
-236.488
-234.543
-232.568
-230.568
-228.547
-226.508
-224.455
-222.392
-220.322
-218.248
-216.173
-214.1
-212.032
-209.971
-207.919
-205.879
-203.853
-201.841
-199.846
-197.868
-195.909
-193.971
-192.053
-190.158
-188.285
-186.435
-184.607
-182.801
-181.013
-179.242
-177.482
-175.729
-173.978
-172.222
-170.457
-168.676
-166.875
-165.049
-163.192
-161.302
-159.375
-157.405
-155.387
-153.314
-151.178
-148.97
-146.682
-144.304
-141.827
-139.239
-136.53
-133.695
-130.728
-127.621
-124.366
-120.947
-117.356
-113.592
-109.659
-105.565
-101.324
-96.951
-92.47
-87.92
-83.338
-78.761
-74.218
-69.72
-65.275
-60.895
-56.596
-52.394
-48.297
-44.288
-40.34
-36.438
-32.562
-28.69
-24.786
-20.775
-16.586
-12.174
-7.505
-2.59
2.54
7.866
13.367
19.001
24.708
30.394
35.943
41.287
46.372
51.137
55.506
59.346
62.532
64.979
66.64
67.52
67.65
67.051
65.734
63.744
61.163
58.107
54.723
51.096
47.249
43.193
38.98
34.742
30.587
26.516
22.389
17.944
12.931
7.227
0.836
-6.304
-14.144
-22.365
-30.403
-37.249
-41.683
-42.779
-40.015
-33.05
-21.95
-7.404
9.452
26.711
41.964
52.994
57.969
55.499
44.948
27.806
7.431
-12.316
-27.679
-37.899
-43.815
-43.121
-29.331
8.373
79.428
185.748
319.762
467.277
616.397
758.079
887.478
1000.806
1087.266
1136.993
1140.227
1089.491
987.588
837.589
648.926
440.78
232.428
50.293
-84.301
-168.432
-206.182
-212.963
-207.195
-192.327
-171.352
-147.198
-119.119
-96.288
-83.348
-74.947
-67.965
-55.81
-35.712
-13.803
6.257
22.61
34.982
46.09
56.865
66.653
75.172
82.563
89.606
96.889
104.325
111.704
118.931
126.069
133.144
139.625
144.678
147.868
149.157
148.77
147.104
144.471
141.1
137.405
133.902
130.947
128.776
127.504
127.098
127.544
128.855
130.984
133.856
137.394
141.49
146.034
150.918
156.01
161.177
166.294
171.257
175.992
180.442
184.561
188.332
191.751
194.828
197.583
200.037
202.212
204.146
205.886
207.484
209.002
210.5
212.044
213.691
215.487
217.472
219.677
222.127
224.844
227.843
231.135
234.732
238.648
242.895
247.482
252.417
257.701
263.335
269.315
275.634
282.286
289.262
296.554
304.148
312.032
320.189
328.603
337.252
346.112
355.156
364.352
373.667
383.068
392.519
401.983
411.42
420.793
430.063
439.19
448.135
456.86
465.324
473.49
481.319
488.775
495.822
502.425
508.553
514.174
519.26
523.784
527.724
531.058
533.768
535.838
537.255
538.01
538.098
537.514
536.26
534.339
531.758
528.528
524.662
520.177
515.091
509.426
503.206
496.458
489.211
481.495
473.342
464.788
455.866
446.615
437.073
427.278
417.269
407.087
396.772
386.363
375.9
365.422
354.969
344.578
334.285
324.126
314.135
304.344
294.783
285.479
276.459
267.746
259.361
251.323
243.648
236.349
229.437
222.922
216.809
211.102
205.802
200.909
196.419
192.326
188.623
185.301
182.347
179.75
177.495
175.566
173.946
172.618
171.561
170.757
170.184
169.822
169.649
169.644
169.785
170.052
170.424
170.881
171.403
171.972
172.57
173.181
173.788
174.377
174.935
175.449
175.91
176.306
176.63
176.876
177.037
177.109
177.089
176.975
176.767
176.464
176.067
175.58
175.003
174.342
173.601
172.785
171.9
170.951
169.946
168.89
167.791
166.655
165.489
164.3
163.095
161.879
160.658
159.438
158.224
157.02
155.83
154.657
153.504
152.373
151.266
150.183
149.124
148.089
147.077
146.087
145.115
144.16
143.218
142.286
141.36
140.435
139.508
138.572
137.624
136.659
135.67
134.654
133.605
132.519
131.39
130.214
128.987
127.705
126.365
124.962
123.496
121.963
120.361
118.69
116.948
115.135
113.25
111.295
109.27
107.177
105.017
102.793
100.507
98.163
95.763
93.312
90.813
88.27
85.688
83.071
80.423
77.749
75.053
72.339
69.613
66.879
64.139
61.4
58.663
55.934
53.214
50.507
47.815
45.14
42.485
39.851
37.24
34.652
32.089
29.551
27.038
24.55
22.086
19.647
17.231
14.836
12.461
10.106
7.767
5.445
3.137
0.842
-1.441
-3.715
-5.979
-8.235
-10.485
-12.728
-14.966
-17.197
-19.423
-21.643
-23.855
-26.059
-28.251
-30.431
-32.596
-34.743
-36.87
-38.973
-41.05
-43.096
-45.107
-47.079
-49.006
-50.886
-52.71
-54.475
-56.174
-57.803
-59.355
-60.827
-62.213
-63.509
-64.71
-65.814
-66.818
-67.719
-68.515
-69.204
-69.785
-70.26
-70.63
-70.898
-71.066
-71.14
-71.127
-71.037
-70.879
-70.662
-70.398
-70.097
-69.77
-69.432
-69.094
-68.771
-68.477
-68.225
-68.03
-67.912
-67.884
-67.963
-68.159
-68.481
-68.939
-69.54
-70.287
-71.188
-72.246
-73.463
-74.848
-76.41
-78.147
-80.065
-82.163
-84.428
-86.851
-89.412
-92.08
-94.832
-97.642
-100.484
-103.336
-106.162
-108.93
-111.605
-114.157
-116.573
-118.833
-120.895
-122.709
-124.244
-125.504
-126.571
-127.515
-128.338
-129.109
-129.949
-131.092
-132.944
-135.737
-139.443
-144.046
-149.565
-155.906
-162.919
-170.027
-176.03
-180.055
-181.748
-180.924
-177.6
-171.898
-164.064
-155.169
-147.356
-142.713
-142.742
-148.276
-159.841
-176.779
-196.646
-216.671
-232.85
-242.967
-249.187
-251.833
-247.712
-230.48
-188.533
-112.805
-3.534
134.848
293.74
458.82
616.777
751.238
840.57
872.724
847.088
770.866
663.282
539.208
399.535
246.85
83.67
-80.984
-222.563
-324.719
-383.309
-404.589
-408.528
-408.893
-408.931
-406.119
-393.438
-369.377
-337.763
-303.345
-270.974
-242.443
-218.044
-198.857
-184.916
-175.648
-170.413
-167.949
-167.374
-168.363
-169.954
-170.53
-169.1
-165.322
-159.301
-151.739
-143.281
-134.319
-125.626
-118.311
-113.051
-110.136
-109.571
-110.945
-113.827
-117.875
-122.576
-127.332
-131.77
-135.658
-138.873
-141.438
-143.321
-144.468
-144.903
-144.665
-143.791
-142.326
-140.306
-137.764
-134.806
-131.56
-128.152
-124.713
-121.321
-118.025
-114.87
-111.888
-109.108
-106.547
-104.201
-102.056
-100.1
-98.318
-96.689
-95.188
-93.763
-92.358
-90.914
-89.365
-87.665
-85.778
-83.675
-81.33
-78.726
-75.846
-72.684
-69.24
-65.509
-61.488
-57.171
-52.554
-47.643
-42.445
-36.97
-31.233
-25.247
-19.028
-12.592
-5.958
0.857
7.831
14.945
22.177
29.502
36.891
44.315
51.74
59.131
66.455
73.674
80.752
87.652
94.338
100.773
106.924
112.755
118.235
123.331
128.011
132.248
136.013
139.281
142.029
144.235
145.881
146.949
147.427
147.304
146.57
145.222
143.255
140.67
137.47
133.661
129.253
124.258
118.69
112.569
105.916
98.753
91.108
83.01
74.488
65.576
56.307
46.717
36.842
26.72
16.389
5.887
-4.745
-15.469
-26.245
-37.036
-47.802
-58.506
-69.111
-79.582
-89.885
-99.985
-109.853
-119.457
-128.769
-137.765
-146.42
-154.712
-162.623
-170.136
-177.237
-183.915
-190.161
-195.97
-201.338
-206.264
-210.75
-214.8
-218.42
-221.619
-224.407
-226.797
-228.804
-230.443
-231.733
-232.691
-233.337
-233.693
-233.78
-233.621
-233.238
-232.654
-231.894
-230.979
-229.934
-228.782
-227.545
-226.246
-224.905
-223.542
-222.178
-220.83
-219.515
-218.248
-217.043
-215.914
-214.87
-213.921
-213.076
-212.341
-211.72
-211.217
-210.833
-210.569
-210.423
-210.394
-210.477
-210.668
-210.962
-211.351
-211.829
-212.386
-213.015
-213.706
-214.448
-215.232
-216.048
-216.884
-217.731
-218.577
-219.414
-220.23
-221.017
-221.766
-222.468
-223.117
-223.704
-224.224
-224.671
-225.041
-225.331
-225.537
-225.658
-225.693
-225.641
-225.503
-225.282
-224.978
-224.595
-224.137
-223.607
-223.009
-222.351
-221.635
-220.87
-220.06
-219.213
-218.334
-217.43
-216.507
-215.571
-214.628
-213.684
-212.744
-211.812
-210.894
-209.993
-209.112
-208.254
-207.421
-206.615
-205.836
-205.085
-204.36
-203.66
-202.984
-202.33
-201.694
-201.074
-200.464
-199.862
-199.263
-198.66
-198.05
-197.426
-196.783
-196.114
-195.414
-194.677
-193.897
-193.068
-192.186
-191.245
-190.243
-189.173
-188.034
-186.822
-185.534
-184.17
-182.727
-181.206
-179.606
-177.929
-176.177
-174.352
-172.456
-170.494
-168.468
-166.383
-164.244
-162.054
-159.82
-157.547
-155.24
-152.905
-150.548
-148.176
-145.794
-143.409
-141.026
-138.65
-136.286
-133.939
-131.612
-129.308
-127.031
-124.782
-122.563
-120.375
-118.217
-116.088
-113.987
-111.912
-109.858
-107.821
-105.797
-103.78
-101.764
-99.741
-97.707
-95.653
-93.574
-91.461
-89.308
-87.108
-84.855
-82.541
-80.161
-77.708
-75.176
-72.56
-69.857
-67.064
-64.179
-61.203
-58.138
-54.989
-51.761
-48.462
-45.098
-41.678
-38.212
-34.712
-31.189
-27.657
-24.133
-20.633
-17.173
-13.775
-10.457
-7.238
-4.132
-1.151
1.694
4.393
6.938
9.317
11.519
13.536
15.354
16.959
18.348
19.515
20.458
21.184
21.704
22.031
22.19
22.197
22.069
21.821
21.469
21.044
20.577
20.1
19.648
19.23
18.855
18.554
18.361
18.298
18.381
18.548
18.731
18.947
19.127
19.137
18.772
17.603
15.248
11.633
6.7
0.373
-7.074
-15.297
-23.654
-30.744
-35.3
-36.701
-34.484
-28.568
-19.605
-8.281
4.086
14.797
21.266
21.736
14.86
0.333
-20.956
-47.906
-78.272
-107.721
-131.461
-144.984
-143.761
-124.238
-84.17
-21.526
63.196
165.584
280.23
400.805
522.901
645.353
764.981
875.863
965.859
1019.392
1025.926
978.679
881.219
742.484
568.578
373.44
171.56
-18.449
-169.802
-270.292
-318.742
-325.525
-314.774
-300.275
-286.633
-273.548
-253.145
-223.944
-190.714
-157.869
-131.058
-113.387
-104.054
-101.515
-103.938
-109.135
-115.102
-120.508
-123.987
-123.971
-119.962
-112.128
-100.833
-87.083
-72.034
-56.473
-41.411
-28.11
-17.202
-8.946
-3.402
-0.208
0.988
0.423
-1.475
-4.153
-7.231
-10.449
-13.651
-16.834
-19.913
-22.726
-25.162
-27.13
-28.575
-29.485
-29.836
-29.598
-28.779
-27.427
-25.62
-23.464
-21.05
-18.435
-15.67
-12.808
-9.921
-7.107
-4.441
-1.977
0.255
2.246
3.99
5.485
6.75
7.824
8.755
9.599
10.403
11.199
12.025
12.922
13.941
15.144
16.579
18.284
20.29
22.623
25.306
28.362
31.8
35.619
39.818
44.394
49.347
54.678
60.381
66.447
72.861
79.607
86.665
94.018
101.644
109.519
117.615
125.906
134.361
142.953
151.649
160.415
169.212
178.003
186.747
195.404
203.935
212.298
220.452
228.358
235.979
243.277
250.217
256.764
262.886
268.551
273.731
278.399
282.531
286.106
289.105
291.512
293.314
294.502
295.067
295.005
294.316
293.001
291.065
288.517
285.368
281.632
277.327
272.473
267.094
261.214
254.863
248.068
240.862
233.279
225.352
217.119
208.615
199.878
190.946
181.856
172.648
163.358
154.025
144.684
135.373
126.125
116.975
107.955
99.096
90.428
81.979
73.774
65.838
58.192
50.856
43.847
37.18
30.867
24.918
19.339
14.136
9.311
4.863
0.791
-2.912
-6.25
-9.234
-11.873
-14.181
-16.171
-17.858
-19.26
-20.393
-21.276
-21.928
-22.369
-22.619
-22.697
-22.625
-22.422
-22.109
-21.706
-21.232
-20.707
-20.15
-19.578
-19.008
-18.456
-17.938
-17.467
-17.055
-16.715
-16.455
-16.284
-16.211
-16.24
-16.376
-16.623
-16.983
-17.456
-18.042
-18.74
-19.546
-20.458
-21.471
-22.581
-23.781
-25.067
-26.431
-27.866
-29.366
-30.923
-32.529
-34.176
-35.857
-37.562
-39.285
-41.016
-42.748
-44.474
-46.186
-47.877
-49.539
-51.167
-52.755
-54.296
-55.785
-57.219
-58.591
-59.899
-61.138
-62.307
-63.402
-64.422
-65.365
-66.228
-67.013
-67.716
-68.339
-68.88
-69.34
-69.718
-70.015
-70.231
-70.368
-70.426
-70.407
-70.312
-70.142
-69.9
-69.588
-69.208
-68.763
-68.256
-67.689
-67.066
-66.391
-65.667
-64.899
-64.09
-63.245
-62.369
-61.468
-60.545
-59.607
-58.658
-57.705
-56.754
-55.81
-54.881
-53.971
-53.087
-52.237
-51.425
-50.659
-49.944
-49.287
-48.692
-48.167
-47.715
-47.342
-47.053
-46.851
-46.74
-46.725
-46.807
-46.988
-47.271
-47.656
-48.144
-48.734
-49.426
-50.217
-51.105
-52.088
-53.162
-54.322
-55.564
-56.881
-58.268
-59.719
-61.224
-62.779
-64.373
-65.999
-67.648
-69.312
-70.981
-72.647
-74.302
-75.934
-77.537
-79.101
-80.616
-82.074
-83.466
-84.784
-86.018
-87.162
-88.208
-89.149
-89.978
-90.689
-91.276
-91.735
-92.06
-92.247
-92.294
-92.196
-91.951
-91.559
-91.016
-90.325
-89.484
-88.494
-87.357
-86.075
-84.649
-83.083
-81.38
-79.544
-77.579
-75.49
-73.286
-70.971
-68.556
-66.048
-63.459
-60.799
-58.081
-55.319
-52.526
-49.717
-46.908
-44.115
-41.353
-38.64
-35.989
-33.419
-30.944
-28.582
-26.347
-24.256
-22.326
-20.571
-19.007
-17.648
-16.505
-15.585
-14.895
-14.44
-14.228
-14.27
-14.575
-15.145
-15.986
-17.102
-18.488
-20.139
-22.03
-24.126
-26.391
-28.787
-31.282
-33.851
-36.461
-39.078
-41.666
-44.174
-46.558
-48.78
-50.791
-52.552
-54.034
-55.231
-56.187
-56.995
-57.751
-58.545
-59.44
-60.485
-61.773
-63.396
-65.451
-68.033
-71.178
-74.979
-79.649
-85.31
-91.934
-99.321
-106.945
-114.189
-120.575
-125.475
-128.087
-127.893
-124.734
-118.96
-111.665
-104.275
-98.098
-94.501
-95.181
-100.035
-106.912
-113.843
-117.665
-118.267
-119.47
-119.736
-113.954
-91.882
-38.205
51.993
174.256
318.928
471.149
621.78
765.32
891.291
985.513
1032.51
1020.948
951.707
837.51
692.55
526.981
348.972
164.769
-12.803
-162.114
-268.626
-327.397
-345.857
-344.362
-336.907
-328.586
-318.47
-299.639
-270.684
-235.533
-198.862
-165.982
-139.222
-118.863
-105.051
-96.884
-93.158
-92.715
-94.24
-96.887
-100.005
-102.396
-102.841
-100.792
-96.259
-89.718
-81.854
-73.172
-64.165
-55.667
-48.63
-43.574
-40.609
-39.537
-39.917
-41.346
-43.499
-45.92
-48.107
-49.764
-50.747
-51.016
-50.645
-49.657
-48.01
-45.733
-42.883
-39.504
-35.674
-31.464
-26.954
-22.29
-17.619
-13.055
-8.692
-4.575
-0.722
2.845
6.12
9.111
11.814
14.239
16.393
18.28
19.918
21.343
22.598
23.75
24.864
25.995
27.193
28.496
29.936
31.54
33.333
35.329
37.55
40.016
42.749
45.769
49.095
52.743
56.733
61.08
65.794
70.875
76.321
82.126
88.279
94.764
101.552
108.601
115.866
123.314
130.924
138.689
146.592
154.616
162.74
170.941
179.215
187.565
195.982
204.452
212.964
221.52
230.151
238.92
247.869
257.008
266.31
275.722
285.194
294.664
304.053
313.264
322.164
330.631
338.571
345.91
352.576
358.477
363.486
367.446
370.238
371.787
372.06
371.053
368.771
365.245
360.544
354.784
348.12
340.685
332.579
323.882
314.67
305.044
295.134
285.087
275.017
265.012
255.144
245.469
236.043
226.897
218.029
209.396
200.932
192.598
184.383
176.294
168.338
160.515
152.813
145.219
137.742
130.392
123.179
116.114
109.2
102.454
95.911
89.62
83.634
77.993
72.718
67.822
63.312
59.194
55.473
52.142
49.186
46.591
44.346
42.44
40.866
39.608
38.646
37.955
37.51
37.287
37.266
37.425
37.743
38.198
38.773
39.451
40.218
41.059
41.957
42.894
43.851
44.812
45.76
46.68
47.554
48.369
49.111
49.768
50.331
50.79
51.137
51.364
51.465
51.434
51.268
50.963
50.516
49.927
49.194
48.318
47.301
46.146
44.855
43.432
41.883
40.211
38.423
36.524
34.522
32.421
30.231
27.96
25.615
23.206
20.742
18.233
15.689
13.12
10.535
7.945
5.358
2.785
0.234
-2.286
-4.766
-7.198
-9.574
-11.886
-14.127
-16.291
-18.372
-20.366
-22.267
-24.072
-25.777
-27.381
-28.882
-30.277
-31.567
-32.751
-33.829
-34.804
-35.677
-36.45
-37.126
-37.709
-38.203
-38.612
-38.943
-39.2
-39.39
-39.518
-39.592
-39.618
-39.604
-39.557
-39.484
-39.392
-39.288
-39.181
-39.076
-38.981
-38.901
-38.844
-38.815
-38.818
-38.86
-38.945
-39.076
-39.258
-39.493
-39.785
-40.136
-40.548
-41.022
-41.558
-42.159
-42.823
-43.551
-44.34
-45.191
-46.1
-47.066
-48.086
-49.156
-50.276
-51.44
-52.645
-53.889
-55.169
-56.48
-57.82
-59.186
-60.573
-61.978
-63.398
-64.83
-66.27
-67.717
-69.166
-70.616
-72.065
-73.51
-74.952
-76.386
-77.812
-79.228
-80.634
-82.027
-83.407
-84.774
-86.126
-87.465
-88.789
-90.101
-91.399
-92.683
-93.952
-95.206
-96.443
-97.66
-98.854
-100.022
-101.161
-102.269
-103.344
-104.382
-105.382
-106.343
-107.264
-108.145
-108.983
-109.774
-110.512
-111.192
-111.808
-112.353
-112.821
-113.202
-113.49
-113.678
-113.768
-113.757
-113.641
-113.413
-113.059
-112.576
-111.968
-111.242
-110.406
-109.472
-108.455
-107.385
-106.309
-105.268
-104.292
-103.397
-102.583
-101.857
-101.227
-100.699
-100.28
-99.955
-99.7
-99.503
-99.355
-99.248
-99.156
-99.02
-98.751
-98.272
-97.541
-96.555
-95.329
-93.872
-92.208
-90.378
-88.446
-86.513
-84.669
-82.96
-81.417
-80.069
-78.957
-78.176
-77.851
-78.08
-78.935
-80.433
-82.557
-85.304
-88.628
-92.434
-96.622
-101.014
-105.438
-109.906
-114.494
-119.335
-124.673
-130.61
-137.118
-144.321
-152.287
-160.819
-169.613
-178.098
-185.481
-191.332
-195.398
-197.238
-196.626
-193.661
-188.619
-182.279
-175.718
-169.661
-164.837
-162.293
-162.989
-167.645
-176.794
-190.655
-207.848
-225.814
-242.368
-254.411
-262.212
-269.837
-276.589
-279.006
-267.17
-224.408
-144.124
-28.205
112.922
260.937
406.481
545.049
673.741
789.031
877.09
923.397
918.17
859.334
757.268
623.776
467.101
295.665
116.31
-58.526
-208.204
-318.644
-384.603
-411.803
-417.826
-415.156
-408.481
-397.205
-375.842
-343.841
-305.262
-264.974
-228.348
-197.942
-174.597
-158.934
-150.114
-146.845
-147.812
-151.396
-156.529
-162.355
-167.376
-170.105
-169.839
-166.472
-160.381
-152.199
-142.342
-131.225
-119.706
-108.772
-98.982
-90.526
-83.28
-76.892
-71.121
-65.785
-60.544
-55.037
-49.099
-42.709
-36.004
-29.249
-22.638
-16.307
-10.415
-5.095
-0.447
3.458
6.593
8.957
10.551
11.39
11.514
11.004
9.961
8.489
6.712
4.769
2.789
0.888
-0.834
-2.311
-3.49
-4.323
-4.779
-4.83
-4.468
-3.701
-2.554
-1.069
0.716
2.775
5.079
7.596
10.303
13.185
16.238
19.48
22.925
26.585
30.476
34.612
39.014
43.708
48.72
54.08
59.809
65.913
72.395
79.253
86.476
94.046
101.939
110.116
118.544
127.186
136.006
144.967
154.028
163.144
172.27
181.36
190.368
199.249
207.96
216.457
224.7
232.648
240.264
247.513
254.36
260.77
266.71
272.148
277.053
281.399
285.16
288.313
290.839
292.723
293.951
294.516
294.412
293.637
292.191
290.08
287.311
283.894
279.843
275.174
269.909
264.067
257.675
250.76
243.35
235.477
227.175
218.476
209.417
200.035
190.368
180.455
170.336
160.052
149.643
139.149
128.614
118.076
107.576
97.153
86.846
76.692
66.726
56.982
47.491
38.284
29.389
20.83
12.632
4.814
-2.604
-9.607
-16.182
-22.317
-28.006
-33.241
-38.019
-42.341
-46.205
-49.617
-52.581
-55.105
-57.199
-58.874
-60.143
-61.022
-61.527
-61.676
-61.488
-60.986
-60.189
-59.122
-57.806
-56.267
-54.527
-52.612
-50.544
-48.349
-46.048
-43.665
-41.221
-38.738
-36.235
-33.731
-31.245
-28.793
-26.391
-24.052
-21.79
-19.616
-17.542
-15.576
-13.727
-12.001
-10.404
-8.941
-7.615
-6.427
-5.378
-4.468
-3.696
-3.057
-2.549
-2.166
-1.902
-1.752
-1.707
-1.76
-1.903
-2.127
-2.426
-2.789
-3.208
-3.676
-4.185
-4.727
-5.295
-5.881
-6.481
-7.088
-7.696
-8.302
-8.9
-9.486
-10.057
-10.609
-11.14
-11.647
-12.127
-12.58
-13.004
-13.399
-13.764
-14.102
-14.413
-14.699
-14.964
-15.209
-15.438
-15.656
-15.866
-16.072
-16.279
-16.491
-16.713
-16.95
-17.204
-17.48
-17.782
-18.113
-18.475
-18.87
-19.301
-19.769
-20.275
-20.82
-21.406
-22.033
-22.702
-23.414
-24.169
-24.968
-25.81
-26.694
-27.622
-28.59
-29.598
-30.644
-31.725
-32.839
-33.983
-35.153
-36.345
-37.554
-38.777
-40.007
-41.239
-42.468
-43.69
-44.898
-46.089
-47.258
-48.401
-49.516
-50.599
-51.649
-52.663
-53.639
-54.576
-55.471
-56.323
-57.131
-57.894
-58.61
-59.279
-59.899
-60.47
-60.993
-61.467
-61.892
-62.27
-62.601
-62.889
-63.136
-63.345
-63.521
-63.669
-63.794
-63.903
-64.001
-64.095
-64.19
-64.292
-64.405
-64.534
-64.681
-64.848
-65.035
-65.245
-65.479
-65.736
-66.018
-66.324
-66.656
-67.016
-67.406
-67.824
-68.271
-68.743
-69.238
-69.755
-70.288
-70.831
-71.378
-71.919
-72.447
-72.956
-73.437
-73.876
-74.259
-74.563
-74.774
-74.887
-74.896
-74.802
-74.612
-74.336
-73.996
-73.629
-73.264
-72.924
-72.628
-72.382
-72.197
-72.094
-72.085
-72.184
-72.392
-72.687
-73.045
-73.44
-73.821
-74.121
-74.257
-74.12
-73.619
-72.702
-71.324
-69.469
-67.133
-64.303
-60.994
-57.248
-53.124
-48.702
-44.079
-39.341
-34.608
-30.04
-25.802
-22.088
-19.059
-16.82
-15.455
-15.021
-15.54
-17.026
-19.462
-22.779
-26.893
-31.721
-37.167
-43.166
-49.646
-56.488
-63.571
-70.761
-77.944
-85.077
-92.146
-99.171
-106.203
-113.289
-120.516
-128.077
-136.1
-144.581
-153.374
-162.054
-170.098
-177.093
-182.544
-185.864
-186.705
-184.977
-181.031
-175.965
-171.109
-167.621
-166.699
-169.402
-176.174
-186.846
-200.245
-213.71
-223.772
-226.855
-219.277
-197.35
-158.122
-99.669
-21.16
74.86
182.407
295.418
407.205
513.021
612.958
704.594
781.249
833.525
846.865
809.761
721.26
586.62
416.899
228.623
36.379
-143.85
-292.623
-397.561
-454.384
-467.819
-454.227
-429.691
-402.911
-377.682
-351.47
-320.359
-285.998
-251.7
-221.189
-198.926
-185.749
-180.053
-180.341
-184.385
-189.929
-195.768
-200.502
-202.276
-200.367
-194.826
-185.894
-174.485
-161.695
-148.255
-135.208
-123.885
-114.962
-108.704
-105.146
-103.872
-104.447
-106.557
-109.668
-113.129
-116.507
-119.479
-121.877
-123.712
-124.95
-125.514
-125.355
-124.451
-122.795
-120.404
-117.296
-113.48
-109.003
-103.944
-98.428
-92.598
-86.586
-80.518
-74.478
-68.523
-62.706
-57.065
-51.639
-46.455
-41.52
-36.826
-32.364
-28.121
-24.081
-20.222
-16.495
-12.847
-9.223
-5.564
-1.83
2.01
5.984
10.115
14.423
18.923
23.623
28.523
33.631
38.953
44.497
50.27
56.271
62.496
68.941
75.598
82.458
89.513
96.754
104.168
111.744
119.469
127.33
135.313
143.4
151.57
159.799
168.063
176.333
184.582
192.779
200.893
208.892
216.744
224.418
231.882
239.105
246.056
252.705
259.02
264.975
270.539
275.688
280.395
284.636
288.391
291.638
294.361
296.544
298.174
299.242
299.738
299.658
298.999
297.76
295.945
293.56
290.612
287.115
283.081
278.53
273.48
267.954
261.979
255.58
248.786
241.63
234.142
226.358
218.311
210.039
201.577
192.963
184.235
175.431
166.588
157.745
148.937
140.202
131.575
123.089
114.778
106.672
98.803
91.198
83.882
76.88
70.214
63.903
57.964
52.41
47.254
42.504
38.166
34.244
30.739
27.648
24.967
22.69
20.808
19.309
18.181
17.408
16.974
16.861
17.049
17.518
18.247
19.212
20.391
21.76
23.297
24.976
26.774
28.668
30.632
32.645
34.683
36.724
38.748
40.734
42.664
44.519
46.283
47.941
49.48
50.889
52.156
53.273
54.234
55.033
55.665
56.128
56.422
56.545
56.5
56.288
55.913
55.379
54.691
53.855
52.877
51.765
50.526
49.167
47.698
46.126
44.461
42.712
40.889
39
37.056
35.065
33.036
30.978
28.898
26.806
24.707
22.608
20.515
18.433
16.367
14.32
12.295
10.296
8.324
6.382
4.469
2.588
0.738
-1.08
-2.867
-4.622
-6.346
-8.04
-9.705
-11.341
-12.949
-14.532
-16.089
-17.623
-19.135
-20.627
-22.1
-23.557
-24.998
-26.425
-27.84
-29.243
-30.635
-32.017
-33.388
-34.748
-36.097
-37.433
-38.756
-40.065
-41.358
-42.633
-43.889
-45.124
-46.337
-47.525
-48.687
-49.822
-50.927
-52.001
-53.044
-54.054
-55.031
-55.973
-56.879
-57.75
-58.586
-59.385
-60.148
-60.874
-61.565
-62.22
-62.841
-63.429
-63.984
-64.51
-65.009
-65.482
-65.934
-66.367
-66.784
-67.189
-67.585
-67.976
-68.366
-68.758
-69.157
-69.567
-69.991
-70.433
-70.897
-71.386
-71.904
-72.452
-73.034
-73.651
-74.306
-74.999
-75.731
-76.504
-77.317
-78.171
-79.064
-79.997
-80.966
-81.969
-83.004
-84.067
-85.153
-86.258
-87.376
-88.501
-89.628
-90.75
-91.861
-92.953
-94.02
-95.053
-96.044
-96.986
-97.871
-98.688
-99.431
-100.09
-100.658
-101.128
-101.493
-101.746
-101.88
-101.892
-101.775
-101.526
-101.141
-100.616
-99.951
-99.146
-98.2
-97.117
-95.901
-94.557
-93.093
-91.52
-89.848
-88.089
-86.253
-84.355
-82.41
-80.433
-78.442
-76.453
-74.484
-72.552
-70.677
-68.879
-67.177
-65.588
-64.124
-62.798
-61.622
-60.611
-59.775
-59.123
-58.661
-58.392
-58.328
-58.476
-58.841
-59.427
-60.233
-61.252
-62.478
-63.898
-65.494
-67.248
-69.135
-71.127
-73.193
-75.305
-77.443
-79.584
-81.713
-83.811
-85.837
-87.754
-89.515
-91.084
-92.482
-93.73
-94.825
-95.831
-96.873
-98.128
-99.939
-102.619
-106.235
-110.829
-116.433
-122.862
-129.911
-137.19
-143.76
-148.652
-151.333
-151.413
-148.769
-143.712
-136.467
-127.615
-118.772
-111.872
-108.561
-110.246
-117.648
-130.775
-149.602
-173.408
-199.82
-225.413
-246.271
-257.993
-256.564
-238.592
-200.428
-140.451
-60.79
35.29
143.251
260.021
387.095
522.831
659.261
781.845
868.452
901.43
875.266
795.268
675.375
528.97
365.624
193.223
22.647
-128.981
-247.744
-326.399
-368.046
-387.469
-395.734
-397.501
-392.538
-375.208
-344.755
-305.582
-263.223
-223.94
-191.207
-166.394
-150.37
-142.672
-142.205
-147.397
-156.039
-166.407
-177.145
-186.486
-192.866
-195.476
-194.12
-189.295
-182.029
-173.214
-163.544
-153.977
-145.416
-138.162
-132.215
-127.434
-123.323
-119.454
-115.793
-112.038
-107.831
-103.902
-101.194
-99.845
-100.403
-102.012
-101.354
-97.91
-92.563
-86.385
-84.719
-88.042
-88.875
-79.18
-47.954
9.457
81.432
151.539
202.963
223.671
218.577
200.094
178.766
163.76
155.213
148.107
140.782
131.985
122.552
115.54
111.465
109.845
110.152
110.92
111.299
111.171
110.349
108.886
107.086
105.192
103.545
102.603
102.642
103.809
106.175
109.695
114.255
119.702
125.843
132.447
139.351
146.452
153.663
160.932
168.217
175.481
182.69
189.828
196.855
203.707
210.351
216.753
222.92
228.909
234.771
240.576
246.399
252.302
258.361
264.645
271.176
277.939
284.905
292.005
299.18
306.375
313.494
320.458
327.186
333.58
339.564
345.05
349.925
354.074
357.364
359.652
360.85
360.907
359.79
357.523
354.144
349.717
344.354
338.153
331.191
323.546
315.268
306.411
297.058
287.297
277.225
266.969
256.623
246.264
235.967
225.767
215.679
205.7
195.783
185.894
176.025
166.176
156.369
146.634
136.988
127.45
118.042
108.77
99.644
90.676
81.872
73.253
64.854
56.712
48.885
41.427
34.373
27.753
21.584
15.875
10.635
5.862
1.549
-2.312
-5.726
-8.698
-11.233
-13.339
-15.031
-16.328
-17.25
-17.824
-18.072
-18.019
-17.689
-17.104
-16.288
-15.261
-14.041
-12.65
-11.106
-9.434
-7.656
-5.795
-3.873
-1.914
0.059
2.026
3.965
5.858
7.689
9.441
11.099
12.65
14.082
15.384
16.546
17.56
18.418
19.115
19.647
20.01
20.203
20.226
20.079
19.764
19.285
18.643
17.843
16.891
15.791
14.549
13.172
11.666
10.041
8.305
6.467
4.537
2.524
0.439
-1.708
-3.908
-6.151
-8.427
-10.727
-13.043
-15.367
-17.691
-20.006
-22.308
-24.588
-26.844
-29.069
-31.26
-33.415
-35.53
-37.603
-39.634
-41.62
-43.563
-45.46
-47.313
-49.122
-50.888
-52.611
-54.294
-55.939
-57.548
-59.123
-60.666
-62.182
-63.672
-65.141
-66.59
-68.024
-69.445
-70.857
-72.262
-73.663
-75.062
-76.46
-77.86
-79.261
-80.665
-82.071
-83.477
-84.885
-86.291
-87.694
-89.093
-90.486
-91.87
-93.242
-94.601
-95.943
-97.266
-98.566
-99.842
-101.09
-102.308
-103.494
-104.646
-105.76
-106.835
-107.869
-108.86
-109.806
-110.704
-111.554
-112.354
-113.103
-113.803
-114.452
-115.052
-115.605
-116.113
-116.578
-117.004
-117.393
-117.748
-118.073
-118.37
-118.645
-118.901
-119.143
-119.375
-119.603
-119.83
-120.061
-120.301
-120.552
-120.818
-121.101
-121.404
-121.728
-122.076
-122.45
-122.85
-123.279
-123.735
-124.222
-124.736
-125.277
-125.841
-126.426
-127.027
-127.637
-128.251
-128.861
-129.461
-130.045
-130.606
-131.14
-131.64
-132.099
-132.512
-132.871
-133.167
-133.391
-133.528
-133.566
-133.493
-133.301
-132.981
-132.527
-131.931
-131.188
-130.299
-129.261
-128.069
-126.717
-125.191
-123.482
-121.594
-119.535
-117.321
-114.979
-112.53
-110.001
-107.428
-104.838
-102.248
-99.669
-97.088
-94.495
-91.895
-89.302
-86.743
-84.251
-81.83
-79.481
-77.206
-74.977
-72.775
-70.573
-68.313
-65.964
-63.529
-61.027
-58.517
-56.075
-53.745
-51.561
-49.551
-47.725
-46.118
-44.768
-43.702
-42.972
-42.63
-42.727
-43.338
-44.498
-46.196
-48.397
-51.034
-54.018
-57.274
-60.721
-64.266
-67.824
-71.301
-74.624
-77.7
-80.402
-82.704
-84.641
-86.325
-88.028
-89.979
-92.322
-95.317
-99.158
-103.711
-108.714
-113.659
-117.704
-120.256
-120.819
-118.661
-113.429
-105.348
-94.905
-83.105
-71.341
-60.768
-52.75
-49.049
-51.069
-59.599
-74.834
-96.523
-122.74
-150.007
-174.929
-193.325
-204.387
-211.654
-214.858
-210.642
-190.148
-138.496
-49.177
75.31
225.522
384.879
540.047
682.462
804.362
897.526
954.725
969.188
935.989
858.508
741.202
588.383
410.68
218.408
26.137
-144.26
-277.091
-364.498
-407.967
-421.195
-417.239
-403.208
-380.144
-343.967
-295.438
-239.536
-184.938
-141.452
-110.273
-90.482
-79.747
-73.238
-71.903
-76.25
-84.768
-97.26
-110.693
-121.902
-129.635
-132.993
-132.2
-128.193
-121.694
-113.443
-104.382
-95.523
-87.863
-81.967
-77.92
-75.534
-74.424
-74.211
-74.532
-74.958
-75.055
-74.58
-73.466
-71.735
-69.508
-66.882
-63.916
-60.699
-57.323
-53.853
-50.339
-46.827
-43.347
-39.957
-36.73
-33.712
-30.937
-28.425
-26.176
-24.187
-22.449
-20.938
-19.625
-18.488
-17.505
-16.654
-15.914
-15.254
-14.64
-14.036
-13.405
-12.709
-11.916
-10.991
-9.905
-8.632
-7.149
-5.434
-3.469
-1.231
1.299
4.141
7.314
10.832
14.708
18.954
23.576
28.579
33.964
39.729
45.869
52.377
59.244
66.458
74.003
81.862
90.013
98.433
107.097
115.975
125.036
134.247
143.573
152.976
162.419
171.862
181.264
190.584
199.78
208.811
217.635
226.211
234.499
242.458
250.052
257.245
264.001
270.288
276.076
281.336
286.043
290.176
293.712
296.637
298.935
300.595
301.61
301.975
301.689
300.754
299.174
296.959
294.12
290.672
286.632
282.021
276.862
271.181
265.007
258.368
251.3
243.835
236.009
227.86
219.426
210.745
201.857
192.8
183.615
174.341
165.015
155.677
146.362
137.109
127.951
118.921
110.052
101.373
92.911
84.693
76.742
69.078
61.72
54.684
47.983
41.628
35.628
29.988
24.712
19.801
15.253
11.063
7.225
3.731
0.571
-2.269
-4.803
-7.045
-9.012
-10.722
-12.194
-13.448
-14.502
-15.379
-16.099
-16.682
-17.15
-17.524
-17.823
-18.066
-18.273
-18.461
-18.646
-18.845
-19.07
-19.336
-19.655
-20.037
-20.49
-21.024
-21.645
-22.356
-23.163
-24.066
-25.066
-26.162
-27.353
-28.635
-30.004
-31.455
-32.981
-34.575
-36.231
-37.939
-39.692
-41.478
-43.29
-45.117
-46.95
-48.778
-50.593
-52.384
-54.144
-55.865
-57.538
-59.157
-60.715
-62.207
-63.627
-64.972
-66.237
-67.419
-68.517
-69.528
-70.453
-71.292
-72.045
-72.714
-73.302
-73.812
-74.247
-74.61
-74.907
-75.143
-75.322
-75.45
-75.533
-75.577
-75.589
-75.575
-75.54
-75.493
-75.437
-75.379
-75.324
-75.277
-75.242
-75.223
-75.225
-75.249
-75.3
-75.379
-75.489
-75.631
-75.806
-76.015
-76.258
-76.535
-76.844
-77.186
-77.558
-77.959
-78.387
-78.839
-79.313
-79.806
-80.315
-80.836
-81.367
-81.903
-82.44
-82.976
-83.506
-84.026
-84.534
-85.026
-85.499
-85.95
-86.377
-86.777
-87.149
-87.491
-87.8
-88.076
-88.317
-88.521
-88.689
-88.818
-88.91
-88.962
-88.975
-88.95
-88.885
-88.782
-88.641
-88.462
-88.247
-87.995
-87.71
-87.39
-87.039
-86.659
-86.25
-85.814
-85.355
-84.874
-84.373
-83.854
-83.319
-82.769
-82.207
-81.633
-81.05
-80.459
-79.861
-79.258
-78.65
-78.04
-77.429
-76.818
-76.208
-75.599
-74.993
-74.39
-73.791
-73.195
-72.604
-72.017
-71.433
-70.852
-70.273
-69.696
-69.118
-68.539
-67.955
-67.364
-66.763
-66.149
-65.519
-64.869
-64.196
-63.496
-62.766
-62.002
-61.201
-60.36
-59.476
-58.548
-57.573
-56.548
-55.471
-54.34
-53.157
-51.919
-50.628
-49.286
-47.894
-46.459
-44.985
-43.479
-41.95
-40.405
-38.853
-37.301
-35.763
-34.248
-32.77
-31.343
-29.978
-28.691
-27.499
-26.416
-25.459
-24.639
-23.966
-23.449
-23.095
-22.911
-22.904
-23.079
-23.44
-23.995
-24.747
-25.697
-26.846
-28.194
-29.734
-31.455
-33.338
-35.358
-37.495
-39.728
-42.036
-44.401
-46.783
-49.15
-51.47
-53.713
-55.875
-57.949
-59.9
-61.685
-63.266
-64.626
-65.829
-66.95
-67.987
-68.993
-70.087
-71.47
-73.537
-76.635
-80.826
-86.095
-92.442
-99.714
-107.694
-115.917
-123.323
-128.792
-131.726
-131.834
-129.062
-123.657
-115.903
-106.568
-97.434
-90.597
-87.805
-90.318
-98.751
-113.539
-133.559
-155.474
-175.806
-190.313
-198.515
-204.539
-207.521
-202.962
-180.396
-123.638
-27.604
102.846
256.959
417.755
574.951
723.282
852.695
951.307
1004.981
999.971
935.77
821.098
667.018
488.724
296.786
102.276
-76.869
-225.214
-330.183
-388.227
-408.27
-400.773
-374.83
-336.589
-290.152
-243.949
-207.55
-186.567
-179.77
-177.855
-171.573
-157.545
-138.101
-119.985
-107.855
-102.143
-101.401
-102.864
-104.751
-106.263
-106.487
-105.132
-102.214
-97.813
-92.158
-85.474
-78.075
-70.718
-64.391
-59.648
-56.595
-55.047
-54.641
-55.077
-56.113
-57.372
-58.381
-58.84
-58.628
-57.754
-56.334
-54.437
-52.053
-49.195
-45.924
-42.328
-38.524
-34.616
-30.67
-26.764
-22.988
-19.419
-16.122
-13.127
-10.422
-7.987
-5.799
-3.841
-2.108
-0.604
0.685
1.79
2.758
3.636
4.467
5.295
6.164
7.129
8.233
9.51
10.976
12.644
14.53
16.656
19.046
21.721
24.702
28.003
31.64
35.623
39.965
44.673
49.748
55.19
60.994
67.156
73.674
80.541
87.746
95.274
103.109
111.232
119.622
128.253
137.098
146.125
155.304
164.6
173.982
183.411
192.854
202.27
211.623
220.875
229.987
238.92
247.637
256.099
264.269
272.11
279.587
286.666
293.315
299.504
305.203
310.388
315.035
319.124
322.636
325.555
327.871
329.572
330.653
331.109
330.94
330.148
328.739
326.721
324.106
320.906
317.138
312.822
307.977
302.627
296.796
290.512
283.803
276.699
269.233
261.438
253.348
244.999
236.427
227.669
218.762
209.743
200.648
191.515
182.38
173.277
164.241
155.305
146.5
137.858
129.406
121.172
113.18
105.453
98.012
90.875
84.06
77.58
71.447
65.672
60.263
55.225
50.562
46.274
42.362
38.823
35.65
32.838
30.378
28.259
26.468
24.991
23.814
22.919
22.289
21.905
21.748
21.797
22.032
22.432
22.976
23.643
24.413
25.264
26.179
27.136
28.118
29.108
30.087
31.04
31.952
32.808
33.597
34.305
34.923
35.441
35.849
36.142
36.314
36.359
36.275
36.061
35.714
35.235
34.627
33.892
33.033
32.055
30.964
29.766
28.467
27.075
25.598
24.043
22.419
20.735
18.997
17.216
15.399
13.554
11.689
9.812
7.931
6.052
4.183
2.33
0.499
-1.304
-3.074
-4.805
-6.495
-8.138
-9.732
-11.273
-12.76
-14.191
-15.564
-16.879
-18.136
-19.334
-20.475
-21.559
-22.589
-23.564
-24.488
-25.361
-26.186
-26.965
-27.7
-28.393
-29.047
-29.662
-30.243
-30.79
-31.307
-31.795
-32.256
-32.693
-33.108
-33.503
-33.88
-34.241
-34.589
-34.926
-35.254
-35.576
-35.894
-36.21
-36.526
-36.845
-37.168
-37.498
-37.838
-38.188
-38.552
-38.932
-39.331
-39.751
-40.196
-40.667
-41.169
-41.703
-42.273
-42.882
-43.532
-44.226
-44.968
-45.759
-46.604
-47.504
-48.461
-49.479
-50.558
-51.699
-52.905
-54.175
-55.509
-56.907
-58.369
-59.893
-61.477
-63.121
-64.821
-66.574
-68.378
-70.227
-72.118
-74.044
-76.001
-77.98
-79.975
-81.979
-83.983
-85.981
-87.963
-89.92
-91.845
-93.726
-95.554
-97.32
-99.012
-100.622
-102.138
-103.551
-104.851
-106.03
-107.078
-107.989
-108.755
-109.368
-109.824
-110.117
-110.242
-110.195
-109.976
-109.582
-109.013
-108.273
-107.364
-106.291
-105.061
-103.683
-102.168
-100.525
-98.768
-96.911
-94.968
-92.954
-90.885
-88.778
-86.648
-84.514
-82.395
-80.308
-78.275
-76.314
-74.447
-72.694
-71.072
-69.599
-68.286
-67.144
-66.185
-65.422
-64.871
-64.548
-64.462
-64.625
-65.045
-65.728
-66.673
-67.86
-69.259
-70.835
-72.555
-74.389
-76.315
-78.306
-80.327
-82.344
-84.309
-86.182
-87.934
-89.524
-90.913
-92.075
-93.006
-93.76
-94.443
-95.152
-95.974
-96.973
-98.205
-99.766
-101.757
-104.265
-107.376
-111.133
-115.634
-121.074
-127.534
-134.974
-143.194
-151.677
-159.832
-167.146
-172.91
-176.338
-177.075
-174.979
-170.261
-164.134
-157.985
-153.12
-151.531
-153.705
-157.819
-162.589
-166.174
-169.497
-177.62
-190.112
-201.602
-199.161
-163.779
-88.46
23.458
158.674
296.782
429.558
555.466
673.128
779.631
859.951
893.785
867.285
776.815
629.926
444.786
244.226
49.289
-117.727
-240.12
-314.974
-348.256
-354.917
-352.204
-346.044
-333.794
-313.178
-284.221
-253.746
-233.991
-228.316
-231.919
-238.665
-240.109
-234.255
-225.408
-215.4
-205.757
-197.072
-187.86
-178.34
-169.392
-161.079
-153.78
-147.693
-142.669
-138.468
-134.404
-129.728
-124.088
-117.567
-110.566
-103.585
-96.902
-90.681
-85.227
-80.742
-77.272
-74.797
-73.082
-71.815
-70.845
-70.115
-69.58
-69.252
-69.114
-69.091
-69.148
-69.276
-69.436
-69.584
-69.65
-69.558
-69.277
-68.787
-68.081
-67.155
-65.997
-64.587
-62.912
-60.973
-58.779
-56.369
-53.802
-51.122
-48.363
-45.557
-42.731
-39.903
-37.08
-34.253
-31.395
-28.48
-25.486
-22.393
-19.182
-15.826
-12.294
-8.547
-4.539
-0.235
4.392
9.365
14.703
20.415
26.509
32.979
39.808
46.981
54.482
62.295
70.401
78.778
87.402
96.242
105.268
114.449
123.752
133.144
142.591
152.057
161.507
170.906
180.219
189.41
198.442
207.277
215.876
224.2
232.213
239.877
247.157
254.018
260.427
266.355
271.774
276.658
280.984
284.73
287.879
290.416
292.327
293.604
294.238
294.225
293.566
292.26
290.314
287.734
284.531
280.719
276.314
271.335
265.805
259.746
253.186
246.154
238.681
230.8
222.546
213.954
205.063
195.91
186.535
176.977
167.277
157.473
147.606
137.713
127.834
118.006
108.266
98.648
89.186
79.913
70.86
62.055
53.526
45.297
37.391
29.828
22.625
15.797
9.358
3.317
-2.319
-7.544
-12.357
-16.758
-20.75
-24.339
-27.533
-30.341
-32.775
-34.851
-36.583
-37.988
-39.087
-39.898
-40.442
-40.742
-40.821
-40.701
-40.406
-39.961
-39.389
-38.715
-37.961
-37.152
-36.309
-35.454
-34.609
-33.793
-33.025
-32.323
-31.704
-31.181
-30.77
-30.481
-30.324
-30.31
-30.443
-30.729
-31.172
-31.774
-32.534
-33.451
-34.523
-35.745
-37.112
-38.617
-40.253
-42.01
-43.88
-45.85
-47.911
-50.049
-52.254
-54.511
-56.809
-59.135
-61.475
-63.817
-66.149
-68.458
-70.732
-72.96
-75.13
-77.233
-79.258
-81.196
-83.04
-84.783
-86.419
-87.942
-89.349
-90.637
-91.803
-92.847
-93.768
-94.566
-95.244
-95.805
-96.251
-96.586
-96.816
-96.947
-96.984
-96.933
-96.803
-96.598
-96.328
-95.998
-95.616
-95.19
-94.726
-94.232
-93.716
-93.183
-92.64
-92.094
-91.551
-91.016
-90.493
-89.988
-89.503
-89.042
-88.608
-88.203
-87.829
-87.487
-87.177
-86.9
-86.654
-86.44
-86.255
-86.097
-85.964
-85.853
-85.761
-85.685
-85.623
-85.571
-85.527
-85.488
-85.452
-85.416
-85.379
-85.338
-85.293
-85.241
-85.182
-85.116
-85.042
-84.961
-84.874
-84.78
-84.681
-84.579
-84.474
-84.368
-84.263
-84.159
-84.06
-83.967
-83.882
-83.808
-83.747
-83.701
-83.672
-83.662
-83.672
-83.703
-83.754
-83.827
-83.918
-84.029
-84.155
-84.296
-84.447
-84.604
-84.763
-84.918
-85.063
-85.19
-85.292
-85.361
-85.39
-85.37
-85.294
-85.153
-84.941
-84.65
-84.273
-83.803
-83.232
-82.555
-81.767
-80.862
-79.839
-78.693
-77.424
-76.034
-74.526
-72.905
-71.176
-69.345
-67.421
-65.414
-63.339
-61.209
-59.038
-56.838
-54.626
-52.419
-50.236
-48.098
-46.022
-44.022
-42.114
-40.317
-38.648
-37.128
-35.768
-34.572
-33.546
-32.696
-32.04
-31.597
-31.378
-31.389
-31.637
-32.12
-32.838
-33.792
-34.956
-36.303
-37.797
-39.389
-41.059
-42.793
-44.581
-46.422
-48.278
-50.087
-51.792
-53.327
-54.65
-55.785
-56.725
-57.444
-58.032
-58.597
-59.377
-60.78
-63.019
-66.107
-70.044
-74.737
-80.09
-86.14
-92.523
-98.414
-103.267
-106.69
-108.518
-109.036
-108.29
-105.958
-102.331
-98.357
-95.024
-93.627
-95.052
-99.331
-106.789
-118.015
-132.865
-150.418
-168.776
-184.774
-195.253
-197.346
-187.619
-162.532
-118.841
-54.877
27.848
125.664
233.9
349.758
473.157
603.032
735.533
858.651
953.909
1003.866
994.02
922.791
799.021
633.619
444.163
246.311
54.761
-109.696
-233.304
-310.839
-344.39
-348.651
-339.129
-323.386
-304.633
-280.651
-247.691
-207.96
-166.182
-127.083
-95.722
-74.161
-62.102
-58.595
-61.728
-69.335
-79.615
-90.934
-101.648
-110.312
-115.751
-117.448
-115.637
-110.947
-104.172
-96.081
-87.444
-79.137
-72.049
-66.659
-63.01
-60.928
-60.047
-60.018
-60.539
-61.198
-61.563
-61.394
-60.604
-59.211
-57.323
-55.015
-52.327
-49.342
-46.152
-42.825
-39.422
-35.98
-32.531
-29.131
-25.851
-22.758
-19.904
-17.318
-15.012
-12.987
-11.237
-9.75
-8.506
-7.474
-6.629
-5.948
-5.404
-4.973
-4.621
-4.313
-4.012
-3.677
-3.27
-2.758
-2.108
-1.292
-0.28
0.95
2.424
4.161
6.185
8.518
11.179
14.188
17.562
21.314
25.456
29.996
34.938
40.285
46.033
52.178
58.712
65.624
72.9
80.524
88.476
96.733
105.269
114.057
123.066
132.262
141.611
151.076
160.618
170.197
179.772
189.302
198.745
208.059
217.202
226.132
234.808
243.188
251.235
258.91
266.177
273.002
279.352
285.197
290.511
295.268
299.449
303.034
306.007
308.357
310.074
311.153
311.59
311.387
310.548
309.08
306.992
304.299
301.017
297.164
292.762
287.835
282.41
276.514
270.178
263.434
256.315
248.855
241.091
233.059
224.796
216.338
207.724
198.991
190.175
181.312
172.438
163.588
154.795
146.091
137.506
129.069
120.809
112.749
104.913
97.322
89.994
82.947
76.195
69.75
63.621
57.817
52.344
47.203
42.398
37.927
33.786
29.972
26.479
23.297
20.418
17.83
15.523
13.483
11.696
10.148
8.824
7.707
6.781
6.031
5.439
4.989
4.663
4.447
4.323
4.277
4.295
4.36
4.462
4.585
4.72
4.855
4.978
5.083
5.159
5.2
5.2
5.153
5.056
4.906
4.699
4.435
4.113
3.732
3.294
2.798
2.246
1.641
0.984
0.278
-0.473
-1.267
-2.1
-2.969
-3.87
-4.8
-5.755
-6.733
-7.73
-8.744
-9.771
-10.81
-11.856
-12.91
-13.968
-15.029
-16.092
-17.157
-18.223
-19.291
-20.361
-21.434
-22.511
-23.593
-24.683
-25.781
-26.889
-28.008
-29.141
-30.288
-31.452
-32.633
-33.833
-35.052
-36.292
-37.553
-38.834
-40.135
-41.456
-42.796
-44.152
-45.525
-46.911
-48.31
-49.719
-51.135
-52.555
-53.978
-55.398
-56.813
-58.218
-59.61
-60.983
-62.333
-63.656
-64.947
-66.202
-67.416
-68.585
-69.704
-70.771
-71.781
-72.731
-73.619
-74.442
-75.2
-75.891
-76.516
-77.074
-77.566
-77.994
-78.36
-78.667
-78.916
-79.113
-79.259
-79.36
-79.419
-79.442
-79.433
-79.399
-79.344
-79.274
-79.196
-79.114
-79.036
-78.966
-78.911
-78.876
-78.868
-78.891
-78.951
-79.052
-79.198
-79.393
-79.64
-79.941
-80.296
-80.707
-81.173
-81.693
-82.265
-82.886
-83.553
-84.263
-85.01
-85.789
-86.595
-87.421
-88.26
-89.103
-89.944
-90.774
-91.585
-92.368
-93.114
-93.815
-94.461
-95.045
-95.557
-95.988
-96.329
-96.572
-96.707
-96.726
-96.623
-96.388
-96.018
-95.506
-94.847
-94.039
-93.079
-91.966
-90.699
-89.277
-87.703
-85.977
-84.104
-82.089
-79.936
-77.654
-75.251
-72.741
-70.135
-67.448
-64.693
-61.885
-59.039
-56.171
-53.3
-50.443
-47.618
-44.844
-42.14
-39.526
-37.024
-34.652
-32.426
-30.358
-28.46
-26.743
-25.218
-23.892
-22.769
-21.853
-21.144
-20.65
-20.375
-20.316
-20.472
-20.835
-21.396
-22.145
-23.068
-24.141
-25.339
-26.637
-28.002
-29.404
-30.811
-32.193
-33.527
-34.793
-35.97
-37.032
-37.941
-38.656
-39.153
-39.438
-39.529
-39.429
-39.195
-38.967
-38.986
-39.592
-41.098
-43.669
-47.375
-52.311
-58.394
-65.291
-72.431
-78.881
-83.681
-86.201
-86.069
-82.984
-77.007
-68.666
-58.887
-49.247
-41.498
-37.186
-37.731
-44.356
-57.766
-76.685
-97.901
-118.038
-134.563
-148.894
-164.807
-181.501
-191.326
-179.214
-128.525
-32.961
98.807
247.839
394.737
529.231
654.454
777.372
896.494
1000.572
1068.28
1078.523
1024.781
911.28
750.45
560.862
357.422
155.428
-25.054
-167.987
-264.131
-312.918
-327.654
-325.686
-316.959
-305.825
-290.14
-264.555
-230.022
-191.46
-153.86
-122.734
-100.876
-87.864
-82.512
-83.13
-87.543
-93.642
-100.01
-105.219
-107.602
-106.503
-101.903
-94.013
-83.747
-72.242
-60.245
-48.743
-39.005
-31.632
-26.859
-24.728
-24.796
-26.586
-29.725
-33.602
-37.534
-41.115
-44.086
-46.33
-47.916
-48.835
-49.041
-48.551
-47.369
-45.511
-43.013
-39.881
-36.145
-31.893
-27.258
-22.419
-17.555
-12.778
-8.166
-3.763
0.412
4.328
7.974
11.355
14.467
17.308
19.881
22.181
24.22
26.038
27.684
29.229
30.744
32.278
33.872
35.555
37.345
39.262
41.318
43.514
45.86
48.371
51.064
53.963
57.087
60.448
64.056
67.913
72.02
76.376
80.977
85.819
90.901
96.224
101.794
107.614
113.68
119.977
126.485
133.171
139.996
146.915
153.881
160.851
167.792
174.68
181.509
188.271
194.96
201.561
208.039
214.371
220.533
226.508
232.288
237.877
243.29
248.562
253.739
258.831
263.83
268.7
273.368
277.771
281.833
285.47
288.615
291.261
293.399
295.013
296.098
296.576
296.332
295.32
293.505
290.676
286.63
281.479
275.269
268.055
260.326
251.187
239.754
227.499
214.907
204.597
199.685
196.86
193.944
187.676
173.564
155.784
137.876
122.257
112.858
106.868
101.415
95.838
88.385
80.048
72.119
64.358
56.942
49.799
42.682
35.761
29.157
22.811
16.696
10.829
5.216
-0.131
-5.186
-9.949
-14.426
-18.591
-22.426
-25.939
-29.14
-32.043
-34.675
-37.049
-39.177
-41.073
-42.752
-44.229
-45.521
-46.651
-47.639
-48.507
-49.28
-49.979
-50.624
-51.231
-51.815
-52.389
-52.961
-53.54
-54.136
-54.756
-55.409
-56.104
-56.848
-57.646
-58.505
-59.43
-60.424
-61.488
-62.623
-63.827
-65.101
-66.44
-67.841
-69.302
-70.815
-72.378
-73.983
-75.625
-77.298
-78.995
-80.71
-82.436
-84.166
-85.894
-87.613
-89.319
-91.005
-92.666
-94.298
-95.897
-97.459
-98.982
-100.463
-101.898
-103.287
-104.626
-105.915
-107.152
-108.336
-109.468
-110.547
-111.574
-112.55
-113.477
-114.357
-115.192
-115.985
-116.737
-117.453
-118.133
-118.782
-119.403
-119.998
-120.57
-121.122
-121.656
-122.176
-122.684
-123.181
-123.67
-124.152
-124.627
-125.098
-125.565
-126.027
-126.487
-126.943
-127.395
-127.844
-128.288
-128.727
-129.161
-129.587
-130.004
-130.411
-130.807
-131.189
-131.556
-131.905
-132.235
-132.544
-132.83
-133.092
-133.327
-133.534
-133.712
-133.859
-133.975
-134.058
-134.107
-134.123
-134.103
-134.048
-133.959
-133.834
-133.675
-133.482
-133.255
-132.996
-132.704
-132.383
-132.032
-131.653
-131.248
-130.819
-130.367
-129.896
-129.406
-128.902
-128.384
-127.857
-127.323
-126.785
-126.244
-125.703
-125.164
-124.629
-124.099
-123.576
-123.062
-122.556
-122.061
-121.577
-121.104
-120.643
-120.193
-119.755
-119.328
-118.91
-118.5
-118.097
-117.699
-117.303
-116.908
-116.511
-116.108
-115.697
-115.274
-114.834
-114.372
-113.883
-113.361
-112.801
-112.197
-111.542
-110.831
-110.06
-109.222
-108.313
-107.327
-106.26
-105.107
-103.865
-102.53
-101.098
-99.569
-97.942
-96.216
-94.394
-92.477
-90.468
-88.374
-86.2
-83.952
-81.642
-79.28
-76.88
-74.457
-72.024
-69.595
-67.183
-64.802
-62.465
-60.186
-57.98
-55.86
-53.839
-51.937
-50.169
-48.551
-47.092
-45.789
-44.639
-43.641
-42.798
-42.127
-41.641
-41.351
-41.267
-41.402
-41.765
-42.366
-43.191
-44.198
-45.347
-46.602
-47.949
-49.412
-51.001
-52.708
-54.501
-56.31
-58.068
-59.732
-61.244
-62.514
-63.531
-64.357
-65.172
-66.295
-68.025
-70.559
-74.007
-78.429
-83.651
-89.276
-94.845
-99.803
-103.651
-106.125
-107.112
-106.505
-104.667
-102.402
-100.355
-99.162
-99.363
-101.11
-104.657
-110.665
-119.207
-129.855
-142.449
-156.605
-171.95
-188.383
-204.966
-219.435
-229.593
-233.181
-227.204
-208.932
-175.554
-123.854
-53.089
34.012
134.234
243.224
358.38
480.817
608.689
736.301
850.738
932.929
967.289
943.652
863.956
739.164
579.265
397.163
204.286
11.548
-161.72
-297.722
-386.199
-422.154
-413.988
-379.166
-332.635
-290.372
-262.799
-249.064
-244.674
-240.184
-226.97
-204.451
-177.035
-152.53
-136.348
-128.918
-127.965
-129.651
-131.819
-133.897
-134.911
-133.998
-130.601
-124.401
-115.752
-105.367
-93.758
-81.488
-69.55
-59.031
-50.592
-44.509
-40.705
-38.845
-38.672
-39.939
-42.185
-44.906
-47.773
-50.583
-53.267
-55.81
-58.104
-60.019
-61.475
-62.434
-62.888
-62.828
-62.233
-61.098
-59.461
-57.396
-55.001
-52.349
-49.477
-46.427
-43.237
-39.972
-36.725
-33.565
-30.545
-27.704
-25.064
-22.636
-20.432
-18.437
-16.613
-14.922
-13.313
-11.747
-10.2
-8.641
-7.033
-5.336
-3.495
-1.465
0.784
3.283
6.058
9.13
12.52
16.238
20.283
24.653
29.35
34.372
39.722
45.399
51.395
57.702
64.307
71.196
78.357
85.774
93.427
101.296
109.359
117.593
125.976
134.483
143.085
151.751
160.45
169.147
177.811
186.407
194.9
203.255
211.437
219.413
227.15
234.615
241.775
248.599
255.058
261.122
266.763
271.957
276.678
280.906
284.619
287.801
290.436
292.511
294.015
294.941
295.283
295.04
294.214
292.807
290.826
288.282
285.186
281.553
277.4
272.746
267.614
262.026
256.009
249.589
242.796
235.659
228.211
220.484
212.511
204.326
195.965
187.461
178.851
170.168
161.448
152.725
144.034
135.406
126.874
118.469
110.219
102.153
94.296
86.671
79.3
72.203
65.396
58.893
52.709
46.853
41.332
36.152
31.318
26.829
22.685
18.881
15.414
12.275
9.455
6.944
4.728
2.794
1.126
-0.291
-1.474
-2.442
-3.214
-3.808
-4.245
-4.545
-4.728
-4.814
-4.822
-4.771
-4.68
-4.567
-4.448
-4.339
-4.255
-4.209
-4.212
-4.278
-4.414
-4.631
-4.935
-5.331
-5.825
-6.42
-7.116
-7.914
-8.814
-9.814
-10.911
-12.1
-13.378
-14.738
-16.176
-17.684
-19.255
-20.882
-22.556
-24.269
-26.013
-27.779
-29.559
-31.345
-33.128
-34.902
-36.659
-38.392
-40.096
-41.765
-43.394
-44.978
-46.513
-47.996
-49.423
-50.794
-52.106
-53.358
-54.55
-55.684
-56.759
-57.776
-58.738
-59.647
-60.504
-61.313
-62.074
-62.792
-63.469
-64.107
-64.71
-65.28
-65.821
-66.334
-66.823
-67.289
-67.734
-68.161
-68.57
-68.962
-69.338
-69.699
-70.044
-70.373
-70.686
-70.983
-71.262
-71.523
-71.765
-71.985
-72.183
-72.357
-72.505
-72.626
-72.717
-72.777
-72.806
-72.801
-72.762
-72.688
-72.579
-72.435
-72.255
-72.041
-71.792
-71.51
-71.195
-70.85
-70.475
-70.074
-69.649
-69.203
-68.739
-68.261
-67.772
-67.277
-66.779
-66.282
-65.792
-65.312
-64.847
-64.399
-63.975
-63.577
-63.21
-62.878
-62.584
-62.333
-62.126
-61.967
-61.859
-61.802
-61.799
-61.85
-61.955
-62.115
-62.329
-62.597
-62.917
-63.288
-63.707
-64.171
-64.678
-65.224
-65.802
-66.409
-67.038
-67.685
-68.34
-68.998
-69.65
-70.289
-70.91
-71.504
-72.064
-72.582
-73.049
-73.46
-73.806
-74.079
-74.268
-74.366
-74.363
-74.253
-74.03
-73.687
-73.218
-72.618
-71.884
-71.012
-70.005
-68.855
-67.559
-66.112
-64.511
-62.764
-60.881
-58.867
-56.73
-54.484
-52.139
-49.717
-47.24
-44.71
-42.137
-39.528
-36.888
-34.243
-31.616
-29.025
-26.494
-24.03
-21.636
-19.336
-17.145
-15.06
-13.091
-11.227
-9.461
-7.829
-6.359
-5.068
-3.981
-3.097
-2.421
-1.974
-1.762
-1.798
-2.101
-2.662
-3.477
-4.562
-5.904
-7.498
-9.344
-11.366
-13.508
-15.734
-17.995
-20.279
-22.56
-24.768
-26.849
-28.747
-30.399
-31.815
-33.002
-33.917
-34.624
-35.241
-35.939
-37.104
-39.074
-41.934
-45.734
-50.494
-56.049
-62.252
-68.772
-74.739
-79.306
-82.054
-82.743
-81.407
-78.355
-73.739
-67.994
-62.502
-58.845
-58.136
-61.354
-68.966
-80.942
-97.705
-118.006
-137.918
-153.797
-162.135
-162.985
-160.954
-156.416
-145.63
-119.08
-61.952
31.429
157.416
305.734
459.445
606.398
739.816
851.295
932.09
972.943
965.065
907.727
808.353
675.311
516.581
340.453
155.212
-23.77
-174.714
-282.961
-342.566
-360.288
-355
-339.661
-320.526
-298.572
-268.257
-229.553
-187.531
-147.12
-114.392
-92.462
-80.577
-77.331
-80.679
-87.869
-96.453
-104.478
-109.987
-111.62
-109.105
-102.607
-92.71
-80.661
-67.755
-55.144
-44.125
-35.584
-29.788
-26.782
-26.288
-27.76
-30.67
-34.447
-38.429
-42.155
-45.389
-47.989
-49.955
-51.306
-52.007
-52.052
-51.451
-50.205
-48.332
-45.864
-42.846
-39.37
-35.583
-31.633
-27.663
-23.794
-20.097
-16.619
-13.388
-10.415
-7.706
-5.264
-3.098
-1.205
0.418
1.785
2.926
3.886
4.729
5.521
6.324
7.195
8.176
9.298
10.589
12.067
13.744
15.636
17.76
20.134
22.78
25.716
28.956
32.514
36.396
40.605
45.145
50.014
55.214
60.741
66.594
72.768
79.261
86.066
93.171
100.564
108.227
116.141
124.282
132.626
141.144
149.807
158.585
167.447
176.358
185.287
194.198
203.057
211.826
220.472
228.956
237.244
245.3
253.088
260.573
267.722
274.502
280.883
286.835
292.33
297.343
301.849
305.829
309.262
312.132
314.425
316.13
317.238
317.745
317.646
316.943
315.639
313.741
311.257
308.198
304.58
300.419
295.732
290.542
284.871
278.744
272.189
265.234
257.909
250.246
242.278
234.038
225.561
216.882
208.036
199.061
189.991
180.862
171.711
162.572
153.478
144.464
135.561
126.798
118.207
109.812
101.641
93.716
86.059
78.689
71.625
64.88
58.47
52.404
46.691
41.338
36.349
31.726
27.469
23.577
20.045
16.868
14.039
11.548
9.384
7.536
5.99
4.73
3.74
3.003
2.502
2.216
2.127
2.215
2.461
2.846
3.348
3.951
4.633
5.377
6.164
6.977
7.8
8.615
9.408
10.165
10.873
11.52
12.094
12.587
12.988
13.29
13.487
13.571
13.539
13.387
13.11
12.709
12.182
11.53
10.754
9.856
8.84
7.708
6.465
5.116
3.666
2.121
0.486
-1.232
-3.026
-4.889
-6.814
-8.795
-10.823
-12.891
-14.993
-17.121
-19.27
-21.431
-23.599
-25.768
-27.932
-30.084
-32.22
-34.332
-36.416
-38.468
-40.481
-42.453
-44.378
-46.255
-48.078
-49.847
-51.558
-53.209
-54.799
-56.325
-57.786
-59.182
-60.512
-61.775
-62.974
-64.108
-65.178
-66.186
-67.133
-68.021
-68.853
-69.63
-70.354
-71.029
-71.658
-72.243
-72.789
-73.299
-73.776
-74.225
-74.651
-75.056
-75.446
-75.824
-76.195
-76.562
-76.93
-77.303
-77.685
-78.081
-78.493
-78.927
-79.385
-79.872
-80.389
-80.94
-81.526
-82.15
-82.812
-83.514
-84.257
-85.041
-85.866
-86.732
-87.637
-88.581
-89.56
-90.573
-91.617
-92.689
-93.784
-94.901
-96.034
-97.181
-98.338
-99.503
-100.67
-101.837
-103
-104.154
-105.294
-106.418
-107.52
-108.597
-109.645
-110.661
-111.641
-112.585
-113.489
-114.352
-115.173
-115.949
-116.68
-117.366
-118.007
-118.602
-119.153
-119.662
-120.131
-120.564
-120.963
-121.331
-121.671
-121.986
-122.278
-122.547
-122.794
-123.018
-123.22
-123.399
-123.558
-123.696
-123.816
-123.918
-124.006
-124.081
-124.145
-124.196
-124.23
-124.243
-124.231
-124.188
-124.108
-123.984
-123.805
-123.567
-123.266
-122.897
-122.455
-121.929
-121.303
-120.565
-119.714
-118.75
-117.676
-116.5
-115.228
-113.882
-112.497
-111.108
-109.748
-108.437
-107.175
-105.966
-104.819
-103.742
-102.747
-101.825
-100.943
-100.077
-99.211
-98.322
-97.395
-96.381
-95.199
-93.783
-92.079
-90.064
-87.75
-85.144
-82.254
-79.111
-75.765
-72.308
-68.871
-65.56
-62.459
-59.65
-57.2
-55.204
-53.782
-53.024
-52.995
-53.743
-55.288
-57.643
-60.799
-64.697
-69.228
-74.231
-79.522
-84.911
-90.187
-95.256
-100.122
-104.865
-109.69
-114.717
-119.936
-125.434
-131.375
-137.653
-144.006
-149.899
-154.481
-157.396
-158.695
-158.28
-156.014
-151.931
-146.19
-139.59
-133.458
-128.347
-124.451
-122.091
-121.555
-123.656
-129.459
-139.15
-152.422
-168.35
-184.696
-199.873
-213.238
-226.242
-241.532
-257.863
-268.659
-260.523
-219.23
-138.86
-22.816
114.854
256.656
391.899
515.518
628.307
734.541
832.565
914.549
969.587
983.103
943.934
851.198
709.499
528.372
324.555
114.511
-83.581
-247.27
-363.219
-429.491
-450.837
-442.255
-417.512
-379.005
-331.029
-278.47
-224.892
-182.306
-155.66
-140.13
-132.875
-127.043
-119.663
-115.673
-116.653
-122.964
-133.67
-144.096
-151.227
-154.013
-151.961
-145.83
-136.521
-124.629
-110.969
-96.571
-82.514
-69.825
-59.11
-50.505
-43.935
-39.202
-36.049
-34.187
-33.212
-32.656
-32.24
-31.858
-31.495
-31.222
-31.055
-30.945
-30.869
-30.798
-30.689
-30.502
-30.171
-29.601
-28.753
-27.624
-26.234
-24.633
-22.848
-20.888
-18.762
-16.479
-14.055
-11.521
-8.915
-6.285
-3.676
-1.118
1.358
3.723
5.965
8.083
10.095
12.037
13.939
15.827
17.726
19.662
21.664
23.769
26.018
28.455
31.12
34.046
37.264
40.798
44.67
48.894
53.476
58.411
63.696
69.327
75.297
81.6
88.224
95.154
102.371
109.855
117.584
125.533
133.679
141.994
150.452
159.022
167.676
176.385
185.118
193.84
202.517
211.112
219.589
227.911
236.043
243.946
251.584
258.924
265.93
272.57
278.813
284.629
289.989
294.867
299.238
303.081
306.376
309.108
311.261
312.825
313.791
314.155
313.912
313.062
311.609
309.556
306.913
303.691
299.903
295.565
290.698
285.321
279.46
273.139
266.387
259.232
251.706
243.84
235.669
227.227
218.549
209.67
200.629
191.46
182.202
172.889
163.558
154.244
144.98
135.799
126.734
117.813
109.067
100.521
92.202
84.132
76.333
68.825
61.624
54.745
48.201
42
36.151
30.659
25.527
20.756
16.345
12.29
8.587
5.228
2.204
-0.495
-2.881
-4.969
-6.773
-8.309
-9.595
-10.648
-11.487
-12.13
-12.597
-12.905
-13.076
-13.127
-13.079
-12.949
-12.756
-12.518
-12.253
-11.976
-11.702
-11.447
-11.223
-11.043
-10.917
-10.856
-10.867
-10.96
-11.139
-11.411
-11.779
-12.247
-12.815
-13.486
-14.258
-15.129
-16.097
-17.16
-18.312
-19.549
-20.867
-22.259
-23.719
-25.242
-26.82
-28.446
-30.113
-31.813
-33.539
-35.283
-37.036
-38.792
-40.543
-42.281
-44.001
-45.696
-47.358
-48.983
-50.565
-52.099
-53.579
-55.002
-56.364
-57.661
-58.891
-60.051
-61.14
-62.157
-63.101
-63.972
-64.771
-65.498
-66.154
-66.74
-67.258
-67.709
-68.096
-68.421
-68.687
-68.897
-69.054
-69.162
-69.225
-69.245
-69.228
-69.177
-69.096
-68.989
-68.859
-68.711
-68.549
-68.378
-68.2
-68.02
-67.843
-67.671
-67.507
-67.356
-67.219
-67.099
-66.997
-66.915
-66.855
-66.818
-66.806
-66.818
-66.855
-66.919
-67.009
-67.125
-67.266
-67.433
-67.624
-67.839
-68.076
-68.334
-68.613
-68.911
-69.227
-69.56
-69.91
-70.273
-70.651
-71.039
-71.438
-71.846
-72.261
-72.682
-73.108
-73.539
-73.974
-74.414
-74.859
-75.31
-75.766
-76.23
-76.702
-77.184
-77.676
-78.181
-78.7
-79.236
-79.79
-80.365
-80.963
-81.587
-82.238
-82.917
-83.626
-84.365
-85.135
-85.937
-86.77
-87.633
-88.527
-89.451
-90.404
-91.384
-92.389
-93.418
-94.467
-95.532
-96.609
-97.693
-98.779
-99.859
-100.928
-101.979
-103.004
-103.997
-104.949
-105.85
-106.693
-107.468
-108.165
-108.775
-109.287
-109.693
-109.983
-110.15
-110.186
-110.084
-109.838
-109.443
-108.894
-108.187
-107.32
-106.291
-105.098
-103.741
-102.223
-100.546
-98.713
-96.731
-94.609
-92.355
-89.984
-87.509
-84.943
-82.305
-79.61
-76.878
-74.128
-71.375
-68.637
-65.932
-63.28
-60.703
-58.222
-55.857
-53.628
-51.553
-49.648
-47.931
-46.413
-45.099
-43.994
-43.105
-42.443
-42.03
-41.887
-42.026
-42.458
-43.188
-44.215
-45.534
-47.128
-48.956
-50.98
-53.156
-55.45
-57.837
-60.286
-62.756
-65.188
-67.508
-69.645
-71.541
-73.146
-74.42
-75.343
-75.919
-76.193
-76.242
-76.16
-76.05
-76.014
-76.17
-76.656
-77.597
-79.164
-81.587
-85.041
-89.615
-95.257
-101.651
-108.366
-114.955
-120.813
-125.241
-127.703
-127.857
-125.864
-122.671
-119.512
-117.68
-118.588
-123.422
-132.861
-147.109
-165.217
-184.511
-201.469
-212.144
-211.98
-196.667
-162.678
-106.664
-28.045
69.422
181.144
301.412
426.07
555.675
687.615
813.525
919.243
984.293
993.626
943.576
840.878
699.931
533.279
351.458
164.656
-13.433
-162.207
-267.437
-324.8
-342.099
-339.664
-331.684
-323.532
-314.181
-296.272
-268.16
-233.666
-197.426
-164.978
-138.819
-119.254
-106.548
-99.908
-98.168
-100.202
-104.632
-110.466
-116.912
-122.639
-126.308
-127.279
-125.481
-121.309
-115.404
-108.234
-100.264
-92.354
-85.457
-80.102
-76.447
-74.342
-73.417
-73.38
-73.966
-74.747
-75.268
-75.257
-74.595
-73.296
-71.478
-69.215
-66.55
-63.567
-60.358
-56.997
-53.549
-50.054
-46.545
-43.081
-39.731
-36.564
-33.632
-30.961
-28.56
-26.427
-24.552
-22.915
-21.491
-20.249
-19.162
-18.206
-17.354
-16.582
-15.858
-15.147
-14.414
-13.623
-12.737
-11.725
-10.559
-9.214
-7.666
-5.897
-3.885
-1.616
0.928
3.765
6.909
10.376
14.178
18.324
22.822
27.677
32.89
38.46
44.383
50.652
57.255
64.182
71.417
78.942
86.737
94.779
103.045
111.506
120.135
128.901
137.77
146.71
155.685
164.658
173.592
182.45
191.192
199.782
208.181
216.353
224.26
231.867
239.14
246.044
252.549
258.624
264.239
269.37
273.99
278.08
281.619
284.593
286.986
288.79
289.995
290.598
290.594
289.986
288.776
286.969
284.575
281.603
278.069
273.988
269.379
264.264
258.665
252.609
246.121
239.231
231.969
224.365
216.451
208.261
199.829
191.188
182.373
173.42
164.362
155.234
146.069
136.901
127.761
118.681
109.69
100.816
92.086
83.527
75.161
67.012
59.1
51.444
44.061
36.966
30.174
23.694
17.536
11.707
6.214
1.058
-3.757
-8.232
-12.368
-16.17
-19.641
-22.788
-25.619
-28.143
-30.37
-32.311
-33.977
-35.383
-36.541
-37.464
-38.166
-38.662
-38.966
-39.092
-39.055
-38.869
-38.548
-38.105
-37.556
-36.912
-36.187
-35.393
-34.542
-33.647
-32.717
-31.764
-30.797
-29.826
-28.86
-27.906
-26.971
-26.063
-25.187
-24.348
-23.55
-22.799
-22.095
-21.443
-20.844
-20.3
-19.813
-19.381
-19.007
-18.69
-18.43
-18.226
-18.079
-17.986
-17.946
-17.959
-18.023
-18.136
-18.296
-18.501
-18.748
-19.035
-19.357
-19.713
-20.098
-20.51
-20.943
-21.395
-21.862
-22.339
-22.823
-23.311
-23.798
-24.282
-24.758
-25.223
-25.676
-26.111
-26.528
-26.924
-27.296
-27.642
-27.96
-28.248
-28.506
-28.73
-28.92
-29.075
-29.194
-29.276
-29.321
-29.329
-29.301
-29.238
-29.14
-29.009
-28.847
-28.657
-28.44
-28.2
-27.939
-27.661
-27.369
-27.068
-26.76
-26.449
-26.139
-25.833
-25.535
-25.247
-24.974
-24.717
-24.481
-24.266
-24.077
-23.915
-23.783
-23.683
-23.616
-23.583
-23.587
-23.628
-23.707
-23.826
-23.984
-24.183
-24.424
-24.707
-25.032
-25.399
-25.808
-26.259
-26.749
-27.28
-27.849
-28.455
-29.097
-29.775
-30.488
-31.235
-32.017
-32.834
-33.684
-34.569
-35.487
-36.441
-37.429
-38.452
-39.512
-40.608
-41.742
-42.915
-44.127
-45.38
-46.673
-48.005
-49.375
-50.779
-52.215
-53.678
-55.164
-56.671
-58.195
-59.733
-61.281
-62.837
-64.399
-65.966
-67.532
-69.094
-70.643
-72.17
-73.668
-75.127
-76.536
-77.884
-79.157
-80.347
-81.446
-82.447
-83.342
-84.117
-84.755
-85.245
-85.584
-85.772
-85.812
-85.712
-85.481
-85.141
-84.728
-84.277
-83.82
-83.376
-82.944
-82.526
-82.128
-81.754
-81.417
-81.107
-80.792
-80.454
-80.078
-79.648
-79.149
-78.536
-77.732
-76.676
-75.319
-73.645
-71.679
-69.444
-66.968
-64.3
-61.493
-58.641
-55.872
-53.28
-50.933
-48.889
-47.189
-45.916
-45.193
-45.112
-45.742
-47.114
-49.21
-52.01
-55.479
-59.544
-64.103
-69.013
-74.096
-79.223
-84.319
-89.345
-94.313
-99.207
-103.968
-108.551
-112.932
-117.135
-121.215
-125.23
-129.233
-133.27
-137.479
-142.12
-147.397
-153.356
-159.834
-166.415
-172.622
-178.102
-182.373
-184.766
-184.784
-182.274
-177.629
-171.765
-165.858
-161.01
-158.322
-159.351
-164.147
-170.677
-176.783
-179.601
-179.733
-181.9
-186.162
-188.525
-177.61
-135.989
-57.235
56.043
191.715
330.05
461.361
580.727
685.252
772.271
830.74
849.591
820.958
744.695
628.378
478.799
306.18
121.042
-63.935
-226.674
-348.896
-422.406
-448.769
-444.248
-427.953
-409.492
-391.866
-371.651
-342.928
-306.052
-265.065
-224.094
-187.782
-158.647
-137.018
-122.89
-115.562
-113.695
-116.07
-121.883
-130.043
-139.015
-147.265
-153.206
-155.892
-155.367
-151.959
-146.002
-138.094
-129.001
-119.636
-111.095
-103.989
-98.377
-94.146
-91.02
-88.685
-86.911
-85.374
-83.705
-81.783
-79.606
-77.218
-74.731
-72.158
-69.48
-66.743
-63.991
-61.258
-58.572
-55.936
-53.357
-50.88
-48.526
-46.29
-44.138
-41.983
-39.769
-37.478
-35.105
-32.69
-30.258
-27.815
-25.375
-22.953
-20.547
-18.157
-15.761
-13.312
-10.783
-8.156
-5.43
-2.624
0.258
3.23
6.314
9.546
12.958
16.574
20.42
24.528
28.919
33.61
38.606
43.895
49.473
55.338
61.489
67.93
74.657
81.66
88.927
96.445
104.194
112.158
120.314
128.636
137.095
145.668
154.329
163.055
171.818
180.59
189.34
198.037
206.649
215.143
223.485
231.64
239.574
247.254
254.647
261.722
268.45
274.8
280.744
286.256
291.311
295.885
299.957
303.509
306.522
308.983
310.878
312.198
312.936
313.087
312.649
311.623
310.014
307.826
305.071
301.759
297.906
293.528
288.645
283.28
277.457
271.202
264.544
257.512
250.139
242.458
234.501
226.303
217.9
209.328
200.622
191.818
182.951
174.059
165.175
156.335
147.571
138.917
130.402
122.058
113.911
105.988
98.314
90.911
83.798
76.995
70.515
64.374
58.58
53.142
48.066
43.354
39.008
35.025
31.403
28.135
25.213
22.63
20.373
18.43
16.788
15.432
14.346
13.513
12.914
12.532
12.347
12.341
12.494
12.785
13.196
13.707
14.299
14.953
15.65
16.372
17.102
17.824
18.522
19.182
19.79
20.336
20.807
21.195
21.491
21.688
21.78
21.763
21.631
21.383
21.016
20.529
19.921
19.194
18.349
17.388
16.312
15.125
13.831
12.434
10.937
9.346
7.666
5.902
4.062
2.15
0.174
-1.859
-3.942
-6.068
-8.23
-10.419
-12.63
-14.855
-17.087
-19.319
-21.546
-23.761
-25.958
-28.13
-30.273
-32.382
-34.45
-36.474
-38.449
-40.37
-42.234
-44.037
-45.774
-47.443
-49.041
-50.563
-52.009
-53.375
-54.659
-55.861
-56.98
-58.016
-58.968
-59.838
-60.627
-61.337
-61.969
-62.527
-63.013
-63.431
-63.784
-64.076
-64.312
-64.497
-64.635
-64.731
-64.79
-64.818
-64.819
-64.798
-64.761
-64.711
-64.656
-64.599
-64.545
-64.501
-64.47
-64.457
-64.467
-64.504
-64.57
-64.669
-64.803
-64.973
-65.183
-65.433
-65.723
-66.055
-66.429
-66.844
-67.3
-67.795
-68.327
-68.894
-69.492
-70.118
-70.769
-71.44
-72.127
-72.828
-73.538
-74.254
-74.972
-75.687
-76.397
-77.097
-77.782
-78.448
-79.092
-79.708
-80.293
-80.845
-81.361
-81.838
-82.274
-82.666
-83.012
-83.309
-83.554
-83.743
-83.873
-83.94
-83.942
-83.874
-83.734
-83.523
-83.238
-82.879
-82.448
-81.946
-81.373
-80.729
-80.012
-79.219
-78.348
-77.393
-76.348
-75.211
-73.978
-72.648
-71.218
-69.689
-68.062
-66.34
-64.519
-62.597
-60.565
-58.42
-56.164
-53.809
-51.369
-48.869
-46.337
-43.807
-41.312
-38.882
-36.534
-34.276
-32.1
-29.999
-27.962
-25.99
-24.1
-22.305
-20.612
-19.02
-17.52
-16.086
-14.679
-13.248
-11.733
-10.09
-8.3
-6.377
-4.366
-2.324
-0.325
1.575
3.345
4.962
6.416
7.699
8.802
9.695
10.337
10.671
10.622
10.137
9.184
7.768
5.931
3.749
1.343
-1.172
-3.705
-6.217
-8.704
-11.169
-13.658
-16.251
-19.093
-22.427
-26.492
-31.431
-37.301
-44.108
-51.668
-59.719
-67.863
-75.35
-81.292
-84.83
-85.346
-82.564
-76.687
-68.175
-57.711
-46.571
-36.565
-29.775
-27.802
-31.827
-42.457
-59.357
-81.992
-107.92
-132.018
-150.481
-160.515
-160.639
-152.769
-133.249
-94.292
-30.605
63.949
185.657
323.452
470.596
617.366
756.845
882.24
976.999
1026.869
1022.673
963.007
859.601
726.832
574.784
409.981
237.05
63.811
-94.231
-219.209
-299.885
-335.591
-335.669
-315.297
-288.343
-260.906
-235.631
-212.758
-188.234
-162.044
-135.101
-107.269
-83.477
-66.638
-56.492
-53.265
-54.415
-57.338
-61.462
-65.83
-69.219
-70.724
-69.732
-66.155
-60.533
-53.576
-45.724
-37.497
-29.816
-23.575
-19.254
-16.949
-16.358
-17.024
-18.621
-20.846
-23.271
-25.449
-27.086
-28.05
-28.359
-28.109
-27.349
-26.07
-24.264
-21.976
-19.274
-16.248
-13.012
-9.652
-6.249
-2.906
0.282
3.243
5.928
8.325
10.454
12.329
13.961
15.356
16.501
17.405
18.09
18.592
18.964
19.254
19.504
19.761
20.076
20.491
21.044
21.76
22.649
23.728
25.018
26.543
28.333
30.411
32.799
35.511
38.558
41.95
45.7
49.819
54.319
59.205
64.474
70.123
76.149
82.536
89.262
96.288
103.559
111.029
118.667
126.448
134.357
142.378
150.49
158.675
166.917
175.2
183.517
191.85
200.168
208.466
216.748
225.045
233.419
241.897
250.471
259.114
267.773
276.386
284.887
293.183
301.158
308.711
315.747
322.194
328.007
333.115
337.427
340.832
343.187
344.394
344.406
343.196
340.764
337.144
332.385
326.586
319.897
312.44
304.32
295.624
286.404
276.742
266.744
256.523
246.211
235.919
225.722
215.693
205.896
196.361
187.104
178.101
169.284
160.611
152.068
143.649
135.374
127.252
119.275
111.442
103.752
96.204
88.802
81.549
74.44
67.487
60.709
54.14
47.835
41.83
36.143
30.787
25.765
21.073
16.713
12.675
8.939
5.492
2.318
-0.592
-3.249
-5.665
-7.858
-9.851
-11.668
-13.331
-14.859
-16.273
-17.59
-18.827
-19.999
-21.117
-22.191
-23.229
-24.242
-25.241
-26.237
-27.239
-28.255
-29.293
-30.361
-31.465
-32.61
-33.797
-35.029
-36.306
-37.628
-38.994
-40.404
-41.855
-43.345
-44.872
-46.435
-48.03
-49.654
-51.305
-52.979
-54.673
-56.383
-58.106
-59.839
-61.578
-63.319
-65.061
-66.8
-68.534
-70.261
-71.977
-73.682
-75.372
-77.045
-78.701
-80.337
-81.952
-83.545
-85.116
-86.665
-88.192
-89.698
-91.184
-92.649
-94.095
-95.522
-96.931
-98.322
-99.696
-101.053
-102.394
-103.719
-105.029
-106.325
-107.607
-108.877
-110.136
-111.385
-112.624
-113.856
-115.081
-116.3
-117.516
-118.729
-119.941
-121.152
-122.366
-123.582
-124.803
-126.03
-127.263
-128.504
-129.754
-131.014
-132.284
-133.565
-134.859
-136.165
-137.483
-138.816
-140.162
-141.522
-142.896
-144.284
-145.685
-147.098
-148.522
-149.956
-151.397
-152.844
-154.295
-155.747
-157.199
-158.647
-160.091
-161.528
-162.955
-164.372
-165.775
-167.161
-168.528
-169.874
-171.196
-172.491
-173.758
-174.994
-176.198
-177.368
-178.505
-179.607
-180.673
-181.704
-182.698
-183.657
-184.581
-185.471
-186.328
-187.153
-187.951
-188.722
-189.47
-190.198
-190.908
-191.602
-192.281
-192.946
-193.596
-194.229
-194.845
-195.442
-196.02
-196.579
-197.119
-197.639
-198.142
-198.628
-199.097
-199.545
-199.968
-200.358
-200.71
-201.015
-201.265
-201.448
-201.554
-201.574
-201.502
-201.333
-201.057
-200.662
-200.127
-199.441
-198.597
-197.594
-196.433
-195.12
-193.658
-192.069
-190.387
-188.644
-186.872
-185.085
-183.278
-181.452
-179.612
-177.761
-175.909
-174.047
-172.14
-170.165
-168.104
-165.937
-163.644
-161.179
-158.459
-155.421
-152.023
-148.252
-144.144
-139.726
-135.02
-130.076
-124.951
-119.742
-114.597
-109.631
-104.929
-100.586
-96.687
-93.347
-90.725
-88.93
-88.02
-88.017
-88.893
-90.616
-93.17
-96.483
-100.446
-104.904
-109.649
-114.505
-119.353
-124.055
-128.49
-132.542
-136.078
-139.04
-141.454
-143.344
-144.768
-145.814
-146.56
-147.151
-147.769
-148.579
-149.814
-151.757
-154.613
-158.506
-163.381
-168.927
-174.792
-180.621
-185.868
-189.861
-192.008
-191.949
-189.954
-186.897
-183.677
-181.29
-180.979
-184
-191.453
-202.745
-214.993
-225.012
-230.41
-231.789
-231.189
-226.723
-211.576
-174.312
-105.068
-2.168
126.994
269.286
413.911
553.219
682.327
794.727
876.697
915.754
903.991
841.069
737.659
604.236
447.726
276.206
97.262
-74.969
-219.049
-321.804
-379.613
-400.045
-401.945
-397.612
-391.074
-381.265
-361.939
-332.118
-295.786
-257.532
-222.532
-193.356
-170.766
-155.349
-146.591
-143.522
-145.044
-149.758
-156.578
-164.494
-171.875
-177.109
-179.346
-178.367
-174.493
-168.345
-160.416
-151.254
-141.848
-133.291
-126.211
-120.833
-117.042
-114.474
-112.833
-111.845
-111.063
-110.006
-108.397
-106.116
-103.188
-99.75
-95.888
-91.659
-87.154
-82.471
-77.689
-72.873
-68.063
-63.289
-58.606
-54.084
-49.788
-45.769
-42.051
-38.643
-35.544
-32.742
-30.222
-27.958
-25.925
-24.097
-22.454
-20.97
-19.622
-18.379
-17.207
-16.07
-14.933
-13.759
-12.516
-11.175
-9.71
-8.097
-6.312
-4.337
-2.15
0.269
2.94
5.883
9.116
12.655
16.512
20.699
25.225
30.093
35.305
40.861
46.757
52.987
59.542
66.413
73.584
81.041
88.764
96.733
104.924
113.311
121.868
130.565
139.37
148.252
157.177
166.111
175.018
183.862
192.608
201.218
209.657
217.888
225.875
233.583
240.978
248.028
254.7
260.966
266.798
272.17
277.058
281.444
285.307
288.632
291.406
293.618
295.259
296.326
296.815
296.728
296.066
294.836
293.048
290.713
287.844
284.458
280.574
276.213
271.398
266.155
260.51
254.493
248.134
241.465
234.52
227.332
219.937
212.369
204.664
196.858
188.985
181.081
173.18
165.314
157.516
149.818
142.251
134.841
127.618
120.605
113.827
107.305
101.058
95.104
89.459
84.134
79.141
74.489
70.185
66.233
62.636
59.394
56.504
53.963
51.765
49.902
48.363
47.139
46.215
45.579
45.216
45.108
45.241
45.597
46.157
46.903
47.816
48.879
50.07
51.373
52.768
54.237
55.764
57.33
58.919
60.517
62.108
63.678
65.214
66.703
68.134
69.497
70.781
71.979
73.083
74.087
74.985
75.774
76.451
77.013
77.459
77.789
78.001
78.098
78.08
77.949
77.709
77.363
76.913
76.366
75.724
74.994
74.18
73.287
72.32
71.285
70.187
69.032
67.825
66.572
65.279
63.951
62.594
61.215
59.817
58.407
56.99
55.571
54.155
52.746
51.348
49.967
48.607
47.271
45.965
44.691
43.453
42.256
41.102
39.994
38.934
37.925
36.969
36.068
35.223
34.437
33.709
33.042
32.436
31.892
31.409
30.987
30.626
30.324
30.08
29.892
29.76
29.679
29.649
29.666
29.727
29.83
29.97
30.144
30.348
30.576
30.825
31.088
31.361
31.639
31.915
32.186
32.446
32.689
32.91
33.104
33.267
33.392
33.475
33.511
33.495
33.424
33.294
33.101
32.843
32.517
32.121
31.653
31.112
30.497
29.807
29.043
28.204
27.292
26.309
25.256
24.137
22.955
21.714
20.42
19.078
17.693
16.272
14.821
13.347
11.857
10.358
8.859
7.367
5.89
4.437
3.017
1.637
0.307
-0.966
-2.173
-3.309
-4.364
-5.333
-6.209
-6.988
-7.665
-8.234
-8.691
-9.033
-9.257
-9.362
-9.347
-9.214
-8.965
-8.604
-8.139
-7.578
-6.93
-6.207
-5.419
-4.576
-3.691
-2.777
-1.849
-0.919
-0.002
0.888
1.733
2.515
3.218
3.826
4.326
4.709
4.963
5.08
5.053
4.875
4.538
4.037
3.358
2.492
1.432
0.173
-1.287
-2.939
-4.775
-6.774
-8.906
-11.148
-13.471
-15.851
-18.266
-20.68
-23.06
-25.373
-27.594
-29.716
-31.726
-33.588
-35.258
-36.71
-37.959
-39.097
-40.208
-41.302
-42.452
-43.783
-45.555
-48.205
-51.968
-56.816
-62.709
-69.627
-77.47
-86.088
-94.812
-102.356
-107.824
-110.844
-111.268
-109.216
-104.774
-98.079
-90.395
-84.04
-80.873
-82.246
-88.96
-101.091
-118.888
-141.13
-163.723
-181.953
-192.271
-194.6
-191.4
-182.09
-160.3
-115.05
-38.384
69.457
198.88
334.716
468.765
597.348
717.046
823.752
899.588
922.505
879.472
763.834
589.041
384.355
177.492
-1.599
-133.921
-219.96
-266.6
-289.871
-307.4
-324.337
-340.311
-350.396
-346.904
-329.654
-303.064
-272.172
-242.409
-215.839
-192.073
-171.159
-153.659
-140.187
-130.928
-125.408
-122.909
-123.11
-125.877
-130.661
-136.169
-140.907
-143.995
-145.188
-144.6
-142.373
-138.601
-133.55
-127.96
-122.825
-118.742
-115.891
-114.163
-113.27
-112.978
-113.114
-113.367
-113.332
-112.771
-111.592
-109.82
-107.605
-105.053
-102.22
-99.18
-96.018
-92.797
-89.586
-86.439
-83.389
-80.487
-77.773
-75.272
-73.006
-70.98
-69.186
-67.61
-66.224
-64.996
-63.902
-62.926
-62.049
-61.258
-60.527
-59.83
-59.139
-58.426
-57.662
-56.821
-55.875
-54.797
-53.566
-52.165
-50.577
-48.789
-46.784
-44.544
-42.055
-39.299
-36.263
-32.937
-29.309
-25.372
-21.121
-16.554
-11.673
-6.482
-0.986
4.808
10.889
17.247
23.866
30.731
37.822
45.12
52.601
60.24
68.01
75.882
83.826
91.81
99.801
107.764
115.666
123.471
131.143
138.648
145.951
153.015
159.807
166.293
172.44
178.219
183.598
188.549
193.048
197.071
200.596
203.604
206.08
208.009
209.38
210.183
210.414
210.068
209.146
207.648
205.582
202.955
199.779
196.067
191.836
187.105
181.895
176.231
170.138
163.643
156.776
149.568
142.052
134.26
126.227
117.989
109.581
101.04
92.401
83.699
74.97
66.249
57.569
48.963
40.463
32.099
23.9
15.896
8.11
0.568
-6.708
-13.698
-20.384
-26.751
-32.784
-38.472
-43.807
-48.781
-53.39
-57.631
-61.502
-65.007
-68.147
-70.928
-73.357
-75.443
-77.197
-78.629
-79.752
-80.581
-81.13
-81.415
-81.451
-81.255
-80.845
-80.238
-79.451
-78.502
-77.408
-76.189
-74.861
-73.44
-71.944
-70.388
-68.787
-67.156
-65.509
-63.858
-62.216
-60.595
-59.004
-57.454
-55.954
-54.512
-53.135
-51.83
-50.601
-49.454
-48.391
-47.416
-46.53
-45.735
-45.032
-44.421
-43.901
-43.472
-43.131
-42.878
-42.708
-42.62
-42.61
-42.675
-42.809
-43.011
-43.274
-43.595
-43.971
-44.395
-44.865
-45.374
-45.919
-46.495
-47.096
-47.717
-48.353
-48.999
-49.649
-50.299
-50.944
-51.579
-52.198
-52.798
-53.374
-53.922
-54.437
-54.916
-55.355
-55.75
-56.099
-56.398
-56.646
-56.839
-56.975
-57.054
-57.073
-57.032
-56.928
-56.761
-56.532
-56.238
-55.88
-55.458
-54.973
-54.426
-53.819
-53.152
-52.43
-51.653
-50.826
-49.951
-49.032
-48.074
-47.081
-46.056
-45.006
-43.934
-42.846
-41.746
-40.641
-39.535
-38.433
-37.341
-36.263
-35.204
-34.17
-33.163
-32.19
-31.254
-30.358
-29.507
-28.703
-27.948
-27.247
-26.6
-26.009
-25.475
-24.999
-24.579
-24.217
-23.909
-23.655
-23.45
-23.292
-23.175
-23.095
-23.047
-23.023
-23.019
-23.025
-23.037
-23.045
-23.044
-23.025
-22.978
-22.892
-22.76
-22.572
-22.323
-22.005
-21.61
-21.129
-20.557
-19.888
-19.117
-18.238
-17.244
-16.124
-14.872
-13.482
-11.954
-10.291
-8.492
-6.553
-4.47
-2.243
0.124
2.618
5.232
7.96
10.794
13.718
16.705
19.719
22.726
25.699
28.623
31.49
34.274
36.939
39.431
41.694
43.706
45.47
46.998
48.287
49.309
50.034
50.491
50.787
50.981
51.011
50.665
49.703
48.05
45.863
43.388
40.69
37.805
35.021
32.934
32.317
33.715
36.988
41.455
46.643
52.158
57.265
60.994
62.043
59.097
51.864
41.03
27.198
11.131
-5.92
-22.734
-37.719
-48.844
-54.998
-56.074
-52.02
-43.447
-31.708
-18.065
-4.108
7.976
16.575
20.852
20.095
14.454
4.956
-7.22
-20.632
-33.559
-44.827
-54.014
-60.798
-65.549
-69.32
-73.425
-79.627
-87.891
-95.72
-100.722
-100.049
-94.654
-89.973
-85.464
-77.14
-55.385
-3.208
85.468
209.25
361.637
525.119
686.592
832.734
944.966
1010.569
1018.882
967.533
868.231
734.698
579.22
412.593
240.643
72.838
-74.225
-188.727
-264.559
-304.508
-322.661
-328.978
-327.306
-317.879
-296.474
-263.361
-223.27
-181.401
-143.112
-111.206
-86.76
-70.386
-61.459
-58.835
-61.015
-66.13
-72.881
-80.237
-86.705
-90.945
-92.325
-90.797
-86.918
-81.558
-75.377
-68.947
-63.11
-58.714
-56.173
-55.52
-56.49
-58.61
-61.486
-64.791
-68.105
-70.994
-73.207
-74.624
-75.224
-75.066
-74.153
-72.477
-70.099
-67.114
-63.638
-59.807
-55.727
-51.482
-47.187
-42.95
-38.846
-34.936
-31.239
-27.754
-24.492
-21.468
-18.702
-16.206
-13.975
-11.993
-10.231
-8.647
-7.199
-5.843
-4.526
-3.206
-1.845
-0.413
1.107
2.724
4.453
6.312
8.318
10.493
12.855
15.421
18.206
21.222
24.481
27.991
31.757
35.784
40.076
44.636
49.467
54.573
59.953
65.605
71.523
77.699
84.121
90.775
97.644
104.708
111.945
119.33
126.84
134.447
142.123
149.837
157.559
165.256
172.894
180.439
187.856
195.112
202.17
208.996
215.557
221.82
227.752
233.323
238.502
243.261
247.574
251.416
254.764
257.599
259.901
261.657
262.852
263.476
263.523
262.988
261.869
260.169
257.891
255.043
251.635
247.68
243.193
238.193
232.701
226.738
220.332
213.508
206.296
198.727
190.831
182.642
174.193
165.519
156.654
147.635
138.496
129.273
120.002
110.718
101.454
92.244
83.121
74.116
65.258
56.576
48.095
39.842
31.838
24.105
16.661
9.523
2.705
-3.781
-9.926
-15.722
-21.165
-26.251
-30.981
-35.356
-39.38
-43.057
-46.395
-49.402
-52.087
-54.461
-56.538
-58.33
-59.851
-61.118
-62.146
-62.953
-63.554
-63.968
-64.212
-64.304
-64.262
-64.102
-63.842
-63.499
-63.09
-62.63
-62.135
-61.619
-61.097
-60.579
-60.08
-59.609
-59.175
-58.788
-58.456
-58.185
-57.982
-57.85
-57.797
-57.823
-57.934
-58.131
-58.416
-58.789
-59.252
-59.803
-60.442
-61.168
-61.98
-62.874
-63.85
-64.903
-66.032
-67.233
-68.502
-69.835
-71.229
-72.68
-74.183
-75.733
-77.327
-78.961
-80.63
-82.33
-84.057
-85.808
-87.578
-89.364
-91.162
-92.968
-94.779
-96.59
-98.398
-100.199
-101.99
-103.766
-105.524
-107.26
-108.971
-110.653
-112.303
-113.917
-115.492
-117.025
-118.512
-119.952
-121.34
-122.675
-123.955
-125.177
-126.341
-127.443
-128.485
-129.463
-130.378
-131.23
-132.018
-132.742
-133.403
-134.003
-134.541
-135.02
-135.442
-135.809
-136.124
-136.39
-136.61
-136.788
-136.928
-137.034
-137.111
-137.164
-137.197
-137.217
-137.227
-137.235
-137.245
-137.264
-137.296
-137.348
-137.425
-137.533
-137.676
-137.859
-138.088
-138.367
-138.699
-139.088
-139.537
-140.048
-140.624
-141.265
-141.971
-142.744
-143.581
-144.482
-145.445
-146.466
-147.542
-148.669
-149.842
-151.056
-152.303
-153.576
-154.869
-156.172
-157.476
-158.773
-160.052
-161.303
-162.514
-163.676
-164.775
-165.801
-166.741
-167.583
-168.314
-168.925
-169.402
-169.735
-169.914
-169.929
-169.772
-169.435
-168.91
-168.193
-167.279
-166.165
-164.848
-163.329
-161.607
-159.687
-157.571
-155.266
-152.782
-150.128
-147.317
-144.363
-141.282
-138.09
-134.808
-131.453
-128.045
-124.603
-121.147
-117.698
-114.281
-110.918
-107.635
-104.455
-101.402
-98.498
-95.766
-93.226
-90.89
-88.771
-86.88
-85.232
-83.847
-82.747
-81.947
-81.463
-81.304
-81.473
-81.97
-82.782
-83.88
-85.231
-86.8
-88.553
-90.466
-92.509
-94.649
-96.84
-99.021
-101.131
-103.116
-104.922
-106.504
-107.839
-108.918
-109.774
-110.48
-111.105
-111.73
-112.447
-113.337
-114.52
-116.129
-118.279
-121.129
-124.872
-129.648
-135.534
-142.459
-150.102
-158.042
-165.778
-172.661
-178.041
-181.386
-182.34
-181.051
-178.306
-175.194
-172.995
-173.123
-176.628
-184.114
-195.969
-211.378
-228.01
-243.109
-251.863
-248.896
-231.356
-195.812
-142.326
-74.251
9.361
107.054
219.736
351.888
497.817
649.285
791.273
899.541
958.405
958.526
900.517
798.259
664.775
508.871
336.685
152.978
-32.058
-199.152
-329.156
-411.114
-444.666
-442.172
-418.527
-385.515
-352.328
-322.33
-298.642
-281.624
-266.507
-250.569
-230.661
-207.425
-187.218
-173.061
-166.15
-165.851
-168.288
-171.464
-174.725
-176.71
-176.592
-173.955
-168.447
-160.455
-150.805
-140.053
-128.803
-118.037
-108.756
-101.559
-96.696
-94.058
-93.279
-94.052
-96.074
-98.877
-101.964
-104.999
-107.787
-110.217
-112.238
-113.764
-114.677
-114.937
-114.561
-113.555
-111.933
-109.704
-106.886
-103.542
-99.774
-95.673
-91.307
-86.735
-82.007
-77.196
-72.406
-67.717
-63.19
-58.869
-54.774
-50.925
-47.335
-43.999
-40.891
-37.976
-35.211
-32.559
-29.996
-27.492
-25.013
-22.518
-19.954
-17.277
-14.456
-11.461
-8.27
-4.859
-1.207
2.698
6.857
11.273
15.947
20.883
26.089
31.566
37.312
43.322
49.587
56.099
62.852
69.832
77.027
84.421
91.997
99.737
107.625
115.638
123.753
131.944
140.181
148.434
156.674
164.868
172.982
180.983
188.837
196.512
203.975
211.194
218.137
224.772
231.07
237.002
242.539
247.654
252.324
256.525
260.235
263.437
266.113
268.25
269.834
270.857
271.313
271.198
270.511
269.254
267.432
265.052
262.127
258.668
254.691
250.216
245.263
239.856
234.019
227.78
221.167
214.211
206.942
199.394
191.599
183.592
175.406
167.077
158.64
150.131
141.584
133.034
124.515
116.061
107.705
99.476
91.407
83.523
75.854
68.422
61.251
54.362
47.772
41.499
35.556
29.954
24.703
19.81
15.278
11.109
7.304
3.86
0.772
-1.966
-4.363
-6.427
-8.171
-9.607
-10.749
-11.614
-12.216
-12.575
-12.708
-12.635
-12.375
-11.948
-11.376
-10.678
-9.874
-8.985
-8.031
-7.03
-6.002
-4.963
-3.931
-2.921
-1.948
-1.026
-0.168
0.617
1.318
1.927
2.437
2.842
3.138
3.322
3.391
3.345
3.184
2.908
2.52
2.022
1.419
0.714
-0.088
-0.979
-1.953
-3.004
-4.124
-5.306
-6.54
-7.819
-9.136
-10.481
-11.846
-13.225
-14.609
-15.991
-17.364
-18.722
-20.058
-21.367
-22.645
