Name,Aleksandre Beruashvili
Date of Birth,"Dec 20, 1998"
Recorded Date,2024-05-31 22:31:08 +0400
Classification,Sinus Rhythm
Symptoms,
Software Version,1.90
Device,"Watch7,2"
Sample Rate,512 hertz


Lead,Lead I
Unit,µV

40.536
40.968
41.382
41.772
42.128
42.441
42.702
42.898
43.02
43.056
42.993
42.822
42.53
42.106
41.54
40.821
39.94
38.888
37.657
36.24
34.632
32.828
30.825
28.622
26.219
23.619
20.824
17.84
14.674
11.334
7.83
4.174
0.378
-3.543
-7.572
-11.692
-15.883
-20.125
-24.397
-28.675
-32.938
-37.161
-41.32
-45.393
-49.355
-53.184
-56.856
-60.35
-63.644
-66.719
-69.554
-72.133
-74.44
-76.46
-78.181
-79.592
-80.684
-81.45
-81.886
-81.99
-81.76
-81.199
-80.31
-79.097
-77.569
-75.736
-73.608
-71.199
-68.522
-65.592
-62.428
-59.051
-55.483
-51.746
-47.861
-43.848
-39.73
-35.528
-31.266
-26.965
-22.644
-18.321
-14.02
-9.766
-5.589
-1.512
2.444
6.266
9.942
13.457
16.791
19.924
22.845
25.546
28.02
30.254
32.231
33.938
35.379
36.577
37.561
38.351
38.96
39.388
39.63
39.71
39.663
39.531
39.374
39.246
39.153
39.108
39.145
39.249
39.428
39.65
39.675
39.292
38.568
37.741
37.125
37.01
37.263
37.551
38.168
39.612
41.459
42.507
41.55
37.153
30.385
25.458
22.484
19.292
12.412
-7.523
-40.821
-76.782
-103.903
-102.016
-60.291
9.796
90.249
152.303
172.197
150.911
101.767
47.56
8.868
-9.713
-13.288
-11.614
-11.744
-14.308
-17.131
-17.408
-14.688
-10.608
-6.38
-2.872
-0.568
0.631
0.685
-0.424
-2.231
-4.207
-6.145
-8.016
-9.89
-11.912
-14.077
-16.312
-18.672
-21.24
-24.046
-27.091
-30.317
-33.629
-36.972
-40.307
-43.583
-46.758
-49.781
-52.599
-55.175
-57.474
-59.459
-61.093
-62.329
-63.125
-63.46
-63.32
-62.688
-61.583
-60.07
-58.251
-56.278
-54.292
-52.378
-50.636
-49.187
-48.163
-47.725
-48.026
-49.15
-51.212
-54.399
-58.764
-64.229
-70.492
-76.855
-82.588
-87.122
-89.814
-89.993
-87.369
-81.967
-74.387
-66.205
-58.956
-53.659
-51.313
-52.664
-57.639
-65.421
-74.011
-79.563
-78.093
-66.344
-40.903
1.293
62.145
142.338
239.119
345.487
454.361
560.171
661
757.164
844.351
911.685
942.662
923.579
850.62
732.221
584.16
417.77
243.051
67.946
-96.683
-229.253
-315.974
-353.656
-349.978
-326.859
-299.136
-272.232
-246.849
-216.892
-181.447
-144.712
-110.683
-84.594
-69.026
-63.141
-65.527
-74.117
-86.418
-100.795
-115.82
-129.482
-140.226
-147.375
-150.692
-150.619
-148.171
-144.08
-139.147
-134.64
-131.433
-129.943
-130.382
-132.483
-135.771
-139.892
-144.348
-148.523
-152.055
-154.737
-156.477
-157.364
-157.472
-156.84
-155.573
-153.775
-151.513
-148.835
-145.761
-142.302
-138.51
-134.464
-130.252
-125.944
-121.578
-117.179
-112.763
-108.339
-103.914
-99.479
-95.011
-90.502
-85.95
-81.356
-76.726
-72.057
-67.337
-62.558
-57.708
-52.777
-47.764
-42.666
-37.484
-32.225
-26.896
-21.507
-16.074
-10.606
-5.111
0.4
5.92
11.439
16.946
22.429
27.877
33.277
38.615
43.875
49.041
54.098
59.03
63.822
68.457
72.919
77.193
81.264
85.118
88.74
92.116
95.235
98.084
100.652
102.93
104.908
106.58
107.939
108.98
109.702
110.103
110.183
109.944
109.388
108.521
107.348
105.878
104.117
102.077
99.768
97.203
94.397
91.364
88.122
84.688
81.08
77.316
73.417
69.4
65.287
61.095
56.846
52.558
48.249
43.94
39.648
35.39
31.184
27.043
22.983
19.018
15.157
11.413
7.795
4.309
0.963
-2.237
-5.289
-8.188
-10.934
-13.527
-15.968
-18.26
-20.406
-22.412
-24.284
-26.029
-27.654
-29.17
-30.584
-31.907
-33.15
-34.322
-35.435
-36.499
-37.526
-38.527
-39.513
-40.494
-41.479
-42.479
-43.5
-44.551
-45.639
-46.769
-47.946
-49.174
-50.458
-51.798
-53.197
-54.654
-56.168
-57.739
-59.362
-61.034
-62.75
-64.504
-66.289
-68.099
-69.925
-71.76
-73.594
-75.418
-77.223
-78.997
-80.731
-82.415
-84.039
-85.591
-87.063
-88.445
-89.728
-90.905
-91.968
-92.91
-93.724
-94.405
-94.949
-95.349
-95.602
-95.703
-95.651
-95.443
-95.078
-94.555
-93.874
-93.036
-92.041
-90.891
-89.589
-88.135
-86.532
-84.783
-82.889
-80.855
-78.685
-76.381
-73.947
-71.388
-68.706
-65.907
-62.993
-59.968
-56.832
-53.59
-50.243
-46.795
-43.247
-39.602
-35.861
-32.028
-28.11
-24.113
-20.041
-15.9
-11.696
-7.435
-3.124
1.232
5.633
10.075
14.557
19.072
23.613
28.173
32.745
37.322
41.896
46.459
51.003
55.526
60.027
64.509
68.965
73.38
77.73
81.995
86.158
90.205
94.124
97.915
101.58
105.139
108.627
112.077
115.51
118.938
122.365
125.799
129.257
132.77
136.368
140.073
143.899
147.864
151.96
156.131
160.296
164.324
168.072
171.45
174.353
176.654
178.248
179.025
178.868
177.717
175.463
171.868
166.867
160.599
153.335
145.662
138.223
131.499
126.165
123.093
122.584
124.332
127.718
131.424
133.878
133.836
130.003
120.828
107.202
92.863
79.652
69.282
62.245
54.986
52.183
65.526
103.289
173.532
273.8
388.286
507.528
626.503
739.208
843.756
926.618
964.905
948.324
874.783
755.7
613.024
455.868
289.872
120.054
-46.263
-188.023
-288.884
-340.549
-347.127
-326.314
-289.925
-249.647
-210.45
-170.646
-135.297
-103.051
-73.261
-48.863
-27.919
-13.204
-7.151
-8.367
-16.187
-27.663
-39.645
-50.261
-57.776
-61.608
-61.744
-58.428
-52.582
-44.996
-36.525
-28.446
-21.589
-16.407
-13.169
-11.656
-11.459
-12.231
-13.465
-14.57
-15.211
-15.194
-14.433
-13.017
-11.007
-8.444
-5.434
-2.081
1.55
5.412
9.493
13.786
18.25
22.817
27.413
31.984
36.506
40.967
45.367
49.709
53.998
58.254
62.51
66.786
71.098
75.455
79.865
84.344
88.914
93.596
98.412
103.383
108.519
113.83
119.322
124.996
130.848
136.872
143.058
149.397
155.88
162.497
169.237
176.086
183.028
190.044
197.116
204.219
211.33
218.421
225.464
232.433
239.301
246.034
252.599
258.966
265.101
270.974
276.56
281.822
286.721
291.243
295.373
299.093
302.395
305.242
307.587
309.432
310.786
311.583
311.772
311.317
310.163
308.351
305.962
302.958
299.264
295.105
290.744
286.048
281.049
275.817
269.832
264.582
261.515
258.63
255.342
247.952
232.027
212.545
192.832
177.83
174.313
176.353
178.934
178.627
169.743
156.404
142.788
129.844
120.126
112.194
104.183
96.475
88.846
81.44
74.654
68.248
62.032
56.079
50.408
44.999
39.858
34.998
30.422
26.163
22.257
18.677
15.397
12.412
9.706
7.268
5.083
3.132
1.391
-0.155
-1.522
-2.73
-3.796
-4.742
-5.587
-6.35
-7.051
-7.709
-8.342
-8.968
-9.604
-10.265
-10.968
-11.726
-12.553
-13.46
-14.458
-15.557
-16.767
-18.095
-19.547
-21.129
-22.845
-24.697
-26.689
-28.819
-31.089
-33.495
-36.035
-38.706
-41.503
-44.421
-47.452
-50.591
-53.828
-57.157
-60.567
-64.048
-67.591
-71.186
-74.82
-78.483
-82.165
-85.854
-89.539
-93.208
-96.852
-100.459
-104.02
-107.523
-110.959
-114.319
-117.593
-120.774
-123.853
-126.824
-129.68
-132.416
-135.027
-137.509
-139.857
-142.069
-144.142
-146.075
-147.867
-149.517
-151.026
-152.395
-153.626
-154.722
-155.686
-156.52
-157.229
-157.816
-158.285
-158.643
-158.892
-159.039
-159.089
-159.049
-158.923
-158.721
-158.446
-158.107
-157.709
-157.258
-156.761
-156.224
-155.652
-155.05
-154.423
-153.779
-153.124
-152.467
-151.816
-151.175
-150.552
-149.956
-149.394
-148.869
-148.385
-147.939
-147.53
-147.163
-146.839
-146.561
-146.329
-146.137
-145.986
-145.875
-145.803
-145.766
-145.758
-145.759
-145.759
-145.757
-145.758
-145.776
-145.825
-145.901
-146.001
-146.13
-146.282
-146.455
-146.633
-146.771
-146.839
-146.807
-146.648
-146.373
-145.974
-145.427
-144.712
-143.761
-142.508
-140.944
-139.077
-136.916
-134.531
-131.903
-129.001
-126.049
-123.25
-120.81
-119.01
-117.807
-117.071
-117.05
-118.057
-119.987
-122.717
-125.71
-128
-129.465
-130.237
-129.893
-127.996
-124.537
-119.724
-114.814
-112.103
-112.759
-117.245
-126.262
-140.165
-158.8
-181.385
-205.394
-226.343
-240.318
-244.407
-235.523
-211.031
-168.84
-107.195
-28.379
60.44
152.858
243.097
330.183
419.158
507.767
587.372
642.125
649.466
599.456
494.931
346.481
172.972
-9.838
-191.257
-355.666
-486.448
-574.152
-612.803
-610.722
-586.589
-550.745
-513.737
-478.648
-441.798
-406.912
-372.654
-338.652
-307.5
-277.513
-252.451
-235.382
-225.931
-224.869
-229.47
-236.804
-245.739
-254.034
-260.065
-263.292
-263.087
-259.47
-253.188
-244.767
-234.927
-224.968
-215.883
-208.148
-202.027
-197.335
-193.606
-190.573
-187.878
-184.967
-181.529
-177.418
-172.553
-167.07
-161.122
-154.767
-148.109
-141.261
-134.265
-127.18
-120.054
-112.899
-105.773
-98.728
-91.786
-84.978
-78.31
-71.772
-65.358
-59.05
-52.811
-46.618
-40.454
-34.305
-28.169
-22.033
-15.88
-9.69
-3.443
2.88
9.293
15.811
22.447
29.206
36.089
43.091
50.203
57.419
64.734
72.139
79.629
87.192
94.816
102.488
110.191
117.908
125.616
133.291
140.909
148.442
155.867
163.156
170.281
177.216
183.933
190.403
196.601
202.498
208.068
213.285
218.123
222.559
226.571
230.139
233.244
235.87
238.005
239.636
240.755
241.358
241.441
241.004
240.05
238.585
236.618
234.162
231.23
227.839
224.011
219.767
215.133
210.135
204.802
199.164
193.253
187.101
180.743
174.213
167.546
160.777
153.944
147.08
140.222
133.405
126.662
120.026
113.529
107.201
101.071
95.165
89.508
84.123
79.029
74.246
69.787
65.667
61.895
58.479
55.424
52.733
50.407
48.442
46.836
45.581
44.669
44.09
43.832
43.881
44.221
44.836
45.708
46.816
48.141
49.661
51.354
53.198
55.169
57.243
59.398
61.61
63.854
66.108
68.349
70.554
72.701
74.771
76.742
78.596
80.316
81.885
83.288
84.51
85.538
86.361
86.968
87.349
87.498
87.406
87.069
86.482
85.642
84.547
83.197
81.593
79.735
77.628
75.275
72.682
69.856
66.804
63.536
60.062
56.393
52.542
48.524
44.352
40.041
35.608
31.069
26.443
21.747
17
12.221
7.432
2.652
-2.097
-6.793
-11.415
-15.941
-20.348
-24.614
-28.716
-32.632
-36.34
-39.817
-43.042
-45.992
-48.646
-50.983
-52.984
-54.631
-55.907
-56.795
-57.281
-57.352
-56.997
-56.208
-54.977
-53.297
-51.165
-48.578
-45.538
-42.046
-38.107
-33.728
-28.918
-23.693
-18.07
-12.065
-5.7
1.003
8.02
15.322
22.885
30.684
38.691
46.88
55.218
63.669
72.199
80.774
89.362
97.929
106.441
114.864
123.171
131.342
139.356
147.188
154.803
162.154
169.206
175.93
182.298
188.289
193.887
199.078
203.866
208.278
212.334
216.054
219.449
222.51
225.253
227.706
229.906
231.92
233.788
235.538
237.204
238.804
240.326
241.744
242.998
243.993
244.655
244.902
244.629
243.745
242.129
239.674
236.234
231.584
225.588
218.248
209.753
200.57
191.274
182.346
174.358
168.002
163.699
161.541
160.977
160.606
158.852
154.364
145.944
132.62
113.947
90.197
63.117
36.126
13.261
-1.412
-3.78
9.979
43.028
97.904
173.632
264.962
366.124
470.744
575.268
681.572
787.535
884.734
958.755
988.085
958.361
868.693
729.051
556.028
362.069
157.275
-48.112
-237.475
-384.417
-473.077
-502.061
-482.367
-439.39
-388.78
-331.508
-269.548
-203.492
-140.041
-95.562
-76.163
-77.257
-92.062
-109.143
-123.413
-138.169
-154.064
-170.998
-187.206
-198.178
-202.303
-200.213
-193.112
-183.098
-172.068
-161.489
-152.573
-145.998
-141.901
-140.016
-139.855
-140.92
-142.593
-144.154
-145.147
-145.331
-144.627
-143.148
-140.984
-138.154
-134.734
-130.841
-126.537
-121.882
-116.908
-111.601
-106.002
-100.188
-94.241
-88.262
-82.317
-76.434
-70.64
-64.95
-59.372
-53.919
-48.587
-43.353
-38.206
-33.138
-28.14
-23.209
-18.327
-13.468
-8.606
-3.715
1.226
6.229
11.306
16.468
21.721
27.07
32.513
38.048
43.671
49.382
55.18
61.06
67.016
73.039
79.118
85.242
91.398
97.569
103.738
109.885
115.99
122.032
127.989
133.837
139.552
145.108
150.479
155.64
160.563
165.222
169.588
173.636
177.34
180.674
183.615
186.14
188.228
189.86
191.021
191.696
191.874
191.546
190.706
189.352
187.482
185.1
182.209
178.818
174.936
170.577
165.755
160.488
154.796
148.701
142.226
135.397
128.24
120.784
113.058
105.092
96.919
88.57
80.079
71.479
62.803
54.084
45.354
36.645
27.987
19.41
10.939
2.601
-5.582
-13.59
-21.403
-29.006
-36.385
-43.529
-50.43
-57.081
-63.478
-69.621
-75.509
-81.146
-86.536
-91.685
-96.601
-101.294
-105.775
-110.056
-114.151
-118.074
-121.841
-125.468
-128.973
-132.373
-135.686
-138.93
-142.123
-145.281
-148.42
-151.557
-154.704
-157.876
-161.083
-164.335
-167.639
-171.002
-174.428
-177.919
-181.475
-185.093
-188.771
-192.501
-196.278
-200.09
-203.93
-207.785
-211.641
-215.487
-219.307
-223.087
-226.81
-230.46
-234.019
-237.471
-240.799
-243.985
-247.012
-249.864
-252.525
-254.979
-257.214
-259.217
-260.974
-262.477
-263.714
-264.68
-265.368
-265.774
-265.896
-265.734
-265.289
-264.565
-263.567
-262.304
-260.782
-259.013
-257.007
-254.777
-252.336
-249.699
-246.88
-243.894
-240.757
-237.484
-234.094
-230.602
-227.025
-223.377
-219.675
-215.934
-212.167
-208.387
-204.608
-200.839
-197.092
-193.375
-189.698
-186.068
-182.49
-178.969
-175.507
-172.109
-168.773
-165.501
-162.289
-159.135
-156.036
-152.987
-149.984
-147.021
-144.092
-141.191
-138.317
-135.465
-132.632
-129.815
-127.011
-124.218
-121.433
-118.655
-115.878
-113.097
-110.308
-107.512
-104.711
-101.909
-99.108
-96.312
-93.523
-90.747
-87.991
-85.256
-82.537
-79.833
-77.148
-74.492
-71.894
-69.375
-66.946
-64.621
-62.407
-60.303
-58.31
-56.41
-54.567
-52.751
-50.935
-49.105
-47.269
-45.418
-43.532
-41.582
-39.511
-37.29
-34.916
-32.369
-29.65
-26.81
-23.904
-21.046
-18.397
-16.056
-14.127
-12.731
-11.956
-11.941
-12.833
-14.731
-17.796
-22.232
-28.085
-35.27
-43.502
-52.167
-60.664
-68.52
-75.135
-79.854
-82.351
-82.756
-81.808
-80.923
-81.457
-84.136
-89.507
-98.276
-110.589
-125.589
-141.332
-154.492
-161.448
-159.775
-147.252
-121.029
-78.913
-19.49
56.039
141.91
231.36
318.495
400.723
482.015
565.197
647.719
720.198
759.412
741.488
653.51
492.09
276.284
39.53
-187.943
-375.22
-504.791
-578.749
-603.617
-593.343
-563.685
-521.27
-473.899
-431.521
-400.244
-385.905
-387.885
-395.743
-400.609
-397.64
-386.433
-373.216
-362.3
-353.578
-345.922
-336.806
-325.119
-312.033
-298.784
-286.428
-275.883
-267.783
-262.442
-259.977
-260.229
-262.741
-267.171
-273.292
-280.757
-289.171
-298.087
-307.001
-315.603
-323.746
-331.27
-338.046
-343.913
-348.666
-352.217
-354.563
-355.711
-355.71
-354.6
-352.408
-349.245
-345.277
-340.696
-335.729
-330.526
-325.161
-319.709
-314.221
-308.751
-303.368
-298.09
-292.892
-287.76
-282.681
-277.645
-272.655
-267.677
-262.646
-257.496
-252.156
-246.579
-240.744
-234.634
-228.237
-221.548
-214.569
-207.314
-199.816
-192.097
-184.176
-176.068
-167.79
-159.364
-150.828
-142.213
-133.556
-124.89
-116.248
-107.667
-99.182
-90.826
-82.632
-74.628
-66.843
-59.308
-52.056
-45.118
-38.526
-32.312
-26.505
-21.133
-16.225
-11.803
-7.889
-4.5
-1.652
0.644
2.379
3.546
4.144
4.172
3.633
2.533
0.881
-1.311
-4.028
-7.253
-10.964
-15.139
-19.751
-24.772
-30.171
-35.915
-41.972
-48.307
-54.881
-61.66
-68.604
-75.675
-82.836
-90.049
-97.275
-104.478
-111.623
-118.676
-125.604
-132.38
-138.974
-145.363
-151.523
-157.436
-163.083
-168.45
-173.525
-178.298
-182.762
-186.913
-190.749
-194.27
-197.481
-200.387
-202.997
-205.321
-207.372
-209.164
-210.714
-212.04
-213.16
-214.094
-214.865
-215.493
-216.002
-216.414
-216.752
-217.039
-217.297
-217.547
-217.809
-218.102
-218.444
-218.85
-219.335
-219.914
-220.596
-221.394
-222.315
-223.367
-224.555
-225.884
-227.356
-228.972
-230.731
-232.63
-234.666
-236.835
-239.13
-241.544
-244.069
-246.697
-249.417
-252.219
-255.093
-258.025
-261.004
-264.017
-267.052
-270.097
-273.139
-276.168
-279.172
-282.142
-285.067
-287.941
-290.753
-293.499
-296.169
-298.759
-301.263
-303.676
-305.993
-308.209
-310.321
-312.326
-314.222
-316.005
-317.674
-319.226
-320.657
-321.967
-323.151
-324.208
-325.134
-325.927
-326.582
-327.098
-327.472
-327.7
-327.78
-327.706
-327.475
-327.084
-326.527
-325.8
-324.896
-323.812
-322.541
-321.08
-319.424
-317.569
-315.51
-313.246
-310.776
-308.101
-305.22
-302.136
-298.851
-295.37
-291.699
-287.844
-283.808
-279.6
-275.226
-270.693
-266.014
-261.201
-256.268
-251.228
-246.096
-240.887
-235.619
-230.305
-224.954
-219.574
-214.174
-208.77
-203.387
-198.05
-192.775
-187.579
-182.482
-177.496
-172.629
-167.876
-163.21
-158.609
-154.054
-149.531
-145.045
-140.595
-136.168
-131.749
-127.307
-122.815
-118.264
-113.642
-108.921
-104.107
-99.243
-94.403
-89.724
-85.322
-81.268
-77.646
-74.519
-71.947
-70.026
-68.847
-68.482
-69.068
-70.765
-73.619
-77.644
-82.688
-88.225
-93.61
-98.17
-101.091
-101.613
-99.376
-94.235
-86.357
-77.186
-68.706
-62.38
-60.004
-61.973
-66.187
-72.574
-81.635
-93.34
-110.293
-128.074
-135.077
-119.942
-69.283
19.604
134.649
260.942
382.733
490.957
590.243
688.219
783.867
869.953
928.614
934.993
879.876
763.727
594.293
394.563
183.473
-21.005
-193.754
-318.953
-389.306
-405.743
-385.474
-348.595
-306.011
-263.084
-218.042
-165.947
-108.787
-51.742
0.495
42.836
73.211
92.797
103.719
109.011
112.229
116.039
121.693
129.958
141.537
156.399
173.884
192.868
211.405
227.641
240.763
250.372
256.181
258.33
257.086
252.864
246.626
239.423
231.904
224.58
217.794
211.715
206.626
202.783
200.257
199.064
199.208
200.668
203.468
207.615
213.025
219.581
227.119
235.446
244.402
253.815
263.547
273.491
283.534
293.594
303.626
313.601
323.513
333.378
343.199
352.996
362.807
372.67
382.637
392.771
403.123
413.754
424.705
435.998
447.648
459.656
472.013
484.703
497.701
510.971
524.484
538.209
552.112
566.165
580.332
594.576
608.858
623.14
637.382
651.551
665.616
679.544
693.306
706.875
720.224
733.331
746.169
758.714
770.939
782.817
794.323
805.434
816.128
826.385
836.184
845.512
854.354
862.701
870.545
877.88
884.702
891.01
896.805
902.09
906.872
911.158
914.957
918.281
921.144
923.56
925.546
927.12
928.3
929.106
929.558
929.678
929.49
929.015
928.279
927.305
926.12
924.75
923.221
921.558
919.788
917.937
916.03
914.091
912.145
910.216
908.324
906.491
904.738
903.084
901.546
900.141
898.884
897.79
896.871
896.14
895.607
895.281
895.173
895.288
895.634
896.217
897.042
898.112
899.431
901.001
902.822
904.894
907.218
909.79
912.608
915.669
918.969
922.502
926.263
930.245
934.443
938.848
943.453
948.25
953.229
958.382
963.7
969.172
974.79
980.543
986.422
992.415
998.512
1004.699
1010.967
1017.306
1023.7
1030.132
1036.586
1043.044
1049.498
1055.944
1062.368
1068.75
1075.08
1081.349
1087.561
1093.716
1099.763
1105.63
1111.275
1116.681
1121.83
1126.71
1131.262
1135.445
1139.352
1143.148
1146.927
1150.677
1154.439
1158.285
1162.101
1165.784
1168.956
1170.82
1172.564
1175.444
1178.31
1180.066
1174.484
1156.359
1132.002
1110.26
1106.684
1133.112
1177
1219.441
1237.737
1215.061
1165.898
1112.706
1075.865
1070.635
1086.298
1106.279
1120.035
1119.337
1109.458
1098.127
1087.585
1079.874
1073.41
1066.111
1058.474
1050.74
1043.154
1036.042
1029.24
1022.625
1016.239
1010.043
1003.938
997.871
991.872
985.996
980.302
974.835
969.571
964.511
959.704
955.179
950.968
947.088
943.476
940.087
936.945
933.984
931.083
928.172
925.122
921.829
918.421
915
911.462
907.968
904.968
902.452
900.237
898.506
896.594
894.814
896.116
900.223
904.162
904.126
890.346
859.648
821.79
787.879
774.862
792.946
828.914
865.232
883.591
869.234
831.201
786.117
745.839
721.221
709.364
700.172
689.379
673.661
653.211
632.012
611.31
591.024
571.092
550.269
526.931
499.725
467.425
428.886
383.337
330.829
272.226
209.397
146.066
86.852
35.759
-3.539
-27.696
-34.559
-23.064
6.801
50.124
97.868
142.737
177.831
202.378
223.133
238.996
242.964
221.08
149.632
18.636
-167.71
-397.37
-644.835
-888.961
-1116.824
-1313.067
-1466.236
-1569.021
-1614.07
-1605.498
-1561.529
-1503.145
-1455.461
-1437.056
-1447.052
-1475.246
-1504.933
-1521.288
-1523.377
-1518.235
-1515.418
-1521.641
-1537.494
-1558.581
-1579.669
-1599.969
-1618.453
-1637.094
-1659.481
-1681.089
-1699.127
-1709.625
-1706.828
-1696.557
-1684.455
-1675.09
-1674.621
-1679.75
-1686.634
-1694.054
-1699.399
-1703.8
-1708.626
-1713.029
-1716.842
-1719.715
-1721.166
-1721.445
-1720.752
-1718.934
-1715.891
-1711.574
-1705.847
-1698.678
-1690.177
-1680.431
-1669.583
-1657.854
-1645.373
-1632.279
-1618.865
-1605.361
-1591.814
-1578.131
-1564.074
-1549.421
-1534.277
-1518.916
-1503.14
-1486.454
-1468.984
-1451.413
-1434.367
-1418.847
-1403.622
-1384.684
-1362.028
-1337.565
-1315.776
-1307.211
-1311.672
-1318.591
-1313.148
-1270.78
-1183.148
-1064.119
-936.629
-834.442
-774.451
-748.583
-739.821
-726.892
-701.959
-670.893
-639.617
-606.001
-558.642
-486.612
-386.386
-272.014
-166.002
-84.923
-40.064
-25.549
-26.316
-33.048
-37.673
-41.413
-52.261
-72.69
-103.135
-141.168
-181.215
-220.663
-258.812
-295.163
-330.102
-363.911
-396.853
-429.395
-461.674
-493.411
-524.071
-553.102
-580.224
-605.29
-627.992
-648.037
-665.277
-679.672
-691.097
-699.254
-703.605
-703.401
-698.257
-688.321
-673.919
-655.731
-635.541
-615.41
-597.225
-583.4
-573.96
-568.229
-568.314
-574.522
-588.819
-613.22
-641.587
-669.623
-692.38
-703.742
-708.643
-710.936
-714.013
-724.059
-737.446
-749.534
-758.03
-758.595
-752.91
-746.077
-738.015
-726.997
-710.292
-681.904
-644.826
-610.037
-586.852
-586.525
-609.95
-645.574
-683.48
-712.702
-728.909
-737.833
-743.126
-747.674
-752.759
-755.568
-755.393
-753.501
-750.693
-748.242
-746.798
-745.983
-745.623
-745.683
-745.856
-745.789
-745.307
-744.324
-742.854
-741.05
-738.969
-736.585
-733.936
-731.071
-728.016
-724.791
-721.379
-717.731
-713.821
-709.636
-705.151
-700.331
-695.137
-689.53
-683.486
-677.004
-670.088
-662.755
-655.027
-646.935
-638.505
-629.763
-620.73
-611.422
-601.853
-592.042
-582.004
-571.759
-561.329
-550.737
-540.006
-529.161
-518.221
-507.203
-496.124
-484.995
-473.831
-462.647
-451.457
-440.278
-429.127
-418.022
-406.98
-396.019
-385.155
-374.399
-363.764
-353.261
-342.9
-332.693
-322.654
-312.794
-303.127
-293.665
-284.42
-275.407
-266.637
-258.115
-249.847
-241.841
-234.109
-226.67
-219.543
-212.732
-206.243
-200.078
-194.234
-188.699
-183.451
-178.441
-173.627
-168.973
-164.446
-160.032
-155.713
-151.454
-147.222
-142.974
-138.671
-134.31
-129.889
-125.397
-120.85
-116.301
-111.851
-107.66
-103.89
-100.654
-98.034
-96.111
-94.982
-94.769
-95.593
-97.547
-100.657
-104.94
-110.484
-117.292
-125.211
-133.878
-142.604
-150.65
-157.501
-162.621
-165.335
-165.215
-162.125
-156.404
-149.258
-141.967
-135.175
-129.562
-126.222
-125.644
-127.537
-130.983
-131.95
-126.228
-112.646
-88.5
-53.913
-9.677
48.731
120.291
204.823
303.056
408.08
519.956
634.786
738.704
820.161
858.664
836.76
754.672
617.832
438.819
237.119
27.457
-173.76
-342.05
-459.203
-517.348
-517.012
-476.692
-417.652
-351.086
-288.405
-231.381
-178.873
-137.108
-104.477
-80.979
-67.993
-60.368
-58.741
-62.946
-69.196
-76.51
-81.783
-81.872
-76.554
-65.951
-51.016
-33.701
-15.87
0.869
15.277
26.571
34.516
39.234
41.017
40.47
38.424
35.7
32.931
30.491
28.519
27.039
26.078
25.673
25.827
26.524
27.777
29.623
32.101
35.238
38.992
43.242
47.819
52.554
57.294
61.941
66.439
70.748
74.85
78.736
82.407
85.866
89.111
92.13
94.913
97.466
99.816
102.017
104.146
106.275
108.469
110.783
113.252
115.903
118.754
121.815
125.08
128.552
132.232
136.13
140.257
144.621
149.223
154.058
159.117
164.388
169.858
175.511
181.329
187.297
193.397
199.616
205.939
212.35
218.832
225.363
231.92
238.478
245.012
251.494
257.896
264.189
270.345
276.338
282.142
287.733
293.085
298.177
302.987
307.496
311.685
315.537
319.038
322.173
324.932
327.307
329.29
330.878
332.069
332.864
333.267
333.284
332.922
332.19
331.101
329.667
327.903
325.825
323.451
320.8
317.894
314.755
311.407
307.875
304.183
300.357
296.421
292.401
288.321
284.205
280.077
275.959
271.874
267.843
263.887
260.025
256.273
252.649
249.166
245.836
242.669
239.675
236.86
234.23
231.788
229.537
227.477
225.609
223.929
222.435
221.121
219.982
219.009
218.195
217.528
216.999
216.595
216.305
216.116
216.014
215.986
216.018
216.096
216.204
216.328
216.453
216.566
216.651
216.695
216.686
216.613
216.464
216.23
215.902
215.472
214.935
214.283
213.512
212.617
211.595
210.445
209.164
207.753
206.212
204.543
202.75
200.835
198.803
196.661
194.414
192.067
189.63
187.109
184.516
181.858
179.148
176.397
173.617
170.821
168.023
165.235
162.47
159.742
157.062
154.443
151.897
149.435
147.067
144.802
142.649
140.619
138.718
136.952
135.326
133.846
132.515
131.336
130.309
129.431
128.699
128.107
127.651
127.326
127.121
127.03
127.043
127.155
127.359
127.645
128.004
128.419
128.875
129.359
129.854
130.347
130.822
131.266
131.67
132.033
132.35
132.617
132.82
132.932
132.934
132.812
132.553
132.146
131.594
130.902
130.088
129.19
128.238
127.26
126.273
125.279
124.29
123.329
122.424
121.624
120.97
120.484
120.205
120.158
120.31
120.621
121.011
121.359
121.607
121.692
121.505
120.965
119.953
118.331
116.032
112.922
108.757
103.464
97.104
89.94
82.666
75.988
70.415
66.618
65.283
66.612
70.422
75.847
80.953
83.862
83.23
77.755
66.535
49.717
28.473
5.383
-15.065
-28.055
-29.294
-14.598
19.452
74.702
151.171
246.661
356.041
472.579
588.943
696.603
786.838
851.839
884.822
882.534
846.438
779.091
684.545
564.151
415.059
241.352
53.578
-127.845
-273.554
-366.664
-404.411
-397.723
-369.941
-335.673
-299.985
-262.895
-218.735
-167.629
-114.492
-64.133
-22.608
6.796
24.264
30.892
28.937
21.352
10.314
-2.158
-13.495
-21.638
-25.494
-24.637
-19.551
-11.516
-1.651
8.918
18.673
26.587
32.243
35.475
36.593
36.201
34.761
32.812
31.039
29.826
29.334
29.663
30.733
32.487
34.978
38.155
41.904
46.134
50.71
55.531
60.557
65.695
70.827
75.869
80.753
85.455
90.004
94.409
98.661
102.749
106.644
110.337
113.844
117.187
120.406
123.539
126.618
129.689
132.801
135.99
139.286
142.698
146.216
149.833
153.549
157.364
161.284
165.307
169.43
173.646
177.948
182.326
186.771
191.266
195.792
200.331
204.862
209.371
213.842
218.261
222.606
226.86
231.001
235.008
238.86
242.533
246.003
249.246
252.238
254.96
257.39
259.511
261.303
262.753
263.845
264.568
264.912
264.868
264.431
263.596
262.361
260.725
258.691
256.262
253.444
250.243
246.671
242.738
238.457
233.845
228.917
223.692
218.189
212.43
206.436
200.23
193.835
187.276
180.578
173.767
166.867
159.904
152.902
145.884
138.875
131.894
124.963
118.102
111.327
104.657
98.106
91.688
85.416
79.302
73.355
67.583
61.995
56.596
51.39
46.381
41.571
36.959
32.546
28.329
24.307
20.474
16.826
13.358
10.062
6.931
3.958
1.132
-1.554
-4.111
-6.549
-8.876
-11.102
-13.238
-15.293
-17.276
-19.196
-21.061
-22.881
-24.662
-26.414
-28.144
-29.858
-31.564
-33.268
-34.976
-36.695
-38.428
-40.182
-41.961
-43.768
-45.608
-47.485
-49.401
-51.358
-53.359
-55.404
-57.496
-59.633
-61.817
-64.046
-66.318
-68.632
-70.986
-73.377
-75.804
-78.261
-80.744
-83.251
-85.777
-88.315
-90.861
-93.407
-95.948
-98.476
-100.984
-103.466
-105.911
-108.313
-110.662
-112.95
-115.17
-117.313
-119.369
-121.33
-123.19
-124.94
-126.575
-128.088
-129.471
-130.722
-131.838
-132.818
-133.662
-134.37
-134.943
-135.383
-135.696
-135.883
-135.947
-135.889
-135.712
-135.421
-135.025
-134.531
-133.95
-133.292
-132.566
-131.785
-130.961
-130.104
-129.214
-128.297
-127.359
-126.413
-125.485
-124.591
-123.744
-122.958
-122.245
-121.61
-121.052
-120.552
-120.074
-119.591
-119.078
-118.523
-117.934
-117.296
-116.589
-115.792
-114.861
-113.776
-112.531
-111.103
-109.465
-107.642
-105.696
-103.733
-101.914
-100.341
-99.06
-98.142
-97.663
-97.72
-98.416
-99.836
-102.026
-105.082
-109.215
-114.503
-120.814
-127.797
-134.81
-141.14
-146.207
-149.38
-149.838
-147.254
-141.985
-134.765
-126.975
-120.38
-116.472
-116.529
-122.121
-132.381
-143.339
-153.088
-159.98
-163.893
-168.923
-170.213
-155.753
-114.616
-35.371
78.345
209.419
342.448
463.457
570.193
667.346
751.35
814.016
839.526
810.93
724.813
585.165
401.916
193.424
-22.668
-226.19
-391.252
-499.943
-546.314
-536.078
-489.46
-428.534
-366.296
-308.376
-252.788
-195.558
-138.223
-85.514
-43.529
-17.204
-6.493
-8.775
-20.533
-37.432
-56.63
-75.628
-91.178
-101.499
-106.082
-104.995
-99.468
-91.09
-80.888
-70.165
-60.574
-52.966
-47.721
-44.885
-43.904
-44.197
-45.349
-46.826
-48.052
-48.736
-48.736
-48.028
-46.752
-45.004
-42.842
-40.356
-37.631
-34.716
-31.641
-28.426
-25.083
-21.652
-18.197
-14.762
-11.372
-8.037
-4.754
-1.518
1.674
4.833
7.983
11.142
14.314
17.509
20.729
23.982
27.289
30.671
34.146
37.731
41.439
45.281
49.262
53.386
57.652
62.055
66.587
71.244
76.02
80.912
85.913
91.013
96.202
101.467
106.793
112.166
117.565
122.97
128.359
133.712
139.006
144.221
149.333
154.319
159.159
163.828
168.306
172.571
176.601
180.373
183.868
187.066
189.948
192.497
194.696
196.53
197.986
199.053
199.721
199.984
199.834
199.27
198.289
196.893
195.085
192.871
190.258
187.256
183.878
180.138
176.053
171.64
166.919
161.91
156.635
151.117
145.379
139.446
133.342
127.091
120.719
114.252
107.714
101.13
94.526
87.924
81.349
74.823
68.369
62.006
55.755
49.635
43.661
37.85
32.217
26.772
21.528
16.494
11.677
7.084
2.718
-1.417
-5.322
-8.996
-12.442
-15.662
-18.663
-21.449
-24.027
-26.406
-28.593
-30.599
-32.432
-34.104
-35.624
-37.005
-38.257
-39.393
-40.423
-41.36
-42.216
-43.002
-43.73
-44.411
-45.057
-45.677
-46.283
-46.885
-47.491
-48.111
-48.752
-49.423
-50.131
-50.88
-51.677
-52.526
-53.431
-54.395
-55.42
-56.508
-57.658
-58.872
-60.149
-61.488
-62.888
-64.347
-65.863
-67.435
-69.058
-70.731
-72.45
-74.211
-76.011
-77.844
-79.706
-81.591
-83.495
-85.409
-87.328
-89.246
-91.156
-93.051
-94.922
-96.763
-98.565
-100.322
-102.026
-103.669
-105.242
-106.739
-108.152
-109.476
-110.702
-111.826
-112.839
-113.738
-114.516
-115.169
-115.693
-116.082
-116.332
-116.44
-116.404
-116.223
-115.893
-115.416
-114.792
-114.027
-113.125
-112.093
-110.938
-109.667
-108.289
-106.816
-105.255
-103.614
-101.901
-100.123
-98.291
-96.421
-94.525
-92.617
-90.709
-88.815
-86.949
-85.127
-83.359
-81.646
-79.994
-78.409
-76.907
-75.52
-74.267
-73.162
-72.219
-71.444
-70.837
-70.4
-70.108
-69.921
-69.8
-69.71
-69.629
-69.557
-69.479
-69.368
-69.189
-68.883
-68.412
-67.769
-66.929
-65.879
-64.651
-63.291
-61.902
-60.642
-59.617
-58.924
-58.67
-58.932
-59.821
-61.466
-63.956
-67.424
-72.054
-77.91
-84.948
-92.956
-101.387
-109.635
-117.154
-123.264
-127.232
-128.6
-127.301
-123.864
-119.676
-116.267
-114.75
-116.14
-121.398
-130.947
-144.337
-159.894
-174.072
-182.69
-182.341
-169.623
-141.192
-94.47
-27.501
58.131
155.938
259.159
361.327
460.335
559.367
655.104
738.634
794.395
801.25
750.644
645.922
497.301
322.315
135.998
-50.373
-219.901
-353.937
-443.138
-482.354
-478.294
-449.241
-402.359
-346.333
-290.987
-237.216
-195.196
-169.177
-151.724
-140.384
-128.814
-113.974
-102.402
-96.85
-98.137
-105.998
-115.846
-124.138
-129.584
-131.553
-130.39
-126.704
-120.987
-113.647
-105.429
-97.51
-90.677
-85.34
-81.698
-79.518
-78.432
-78.163
-78.287
-78.262
-77.772
-76.65
-74.822
-72.384
-69.431
-66.016
-62.24
-58.207
-53.981
-49.603
-45.108
-40.515
-35.873
-31.263
-26.738
-22.34
-18.091
-13.996
-10.056
-6.266
-2.609
0.947
4.426
7.845
11.215
14.544
17.844
21.137
24.446
27.795
31.205
34.695
38.281
41.977
45.792
49.729
53.788
57.965
62.258
66.666
71.185
75.814
80.545
85.371
90.281
95.263
100.303
105.385
110.487
115.589
120.671
125.708
130.68
135.56
140.325
144.95
149.409
153.676
157.727
161.535
165.075
168.324
171.256
173.851
176.086
177.942
179.4
180.446
181.064
181.243
180.976
180.254
179.075
177.438
175.344
172.798
169.808
166.383
162.535
158.281
153.638
148.625
143.265
137.583
131.602
125.353
118.862
112.16
105.278
98.248
91.102
83.873
76.593
69.297
62.015
54.782
47.627
40.583
33.679
26.941
20.398
14.073
7.989
2.167
-3.377
-8.627
-13.569
-18.193
-22.491
-26.457
-30.089
-33.386
-36.35
-38.985
-41.297
-43.296
-44.991
-46.397
-47.526
-48.396
-49.023
-49.426
-49.625
-49.642
-49.499
-49.217
-48.821
-48.333
-47.778
-47.179
-46.559
-45.942
-45.348
-44.799
-44.315
-43.914
-43.614
-43.43
-43.376
-43.465
-43.707
-44.112
-44.685
-45.432
-46.356
-47.458
-48.739
-50.195
-51.823
-53.619
-55.574
-57.682
-59.933
-62.317
-64.823
-67.436
-70.144
-72.933
-75.787
-78.691
-81.629
-84.584
-87.54
-90.481
-93.391
-96.255
-99.056
-101.781
-104.415
-106.944
-109.356
-111.639
-113.782
-115.775
-117.609
-119.279
-120.778
-122.1
-123.242
-124.2
-124.972
-125.556
-125.952
-126.161
-126.181
-126.015
-125.664
-125.133
-124.426
-123.546
-122.498
-121.287
-119.919
-118.4
-116.737
-114.936
-113.006
-110.953
-108.788
-106.519
-104.157
-101.712
-99.196
-96.621
-94
-91.342
-88.662
-85.97
-83.278
-80.598
-77.94
-75.315
-72.733
-70.205
-67.742
-65.356
-63.059
-60.861
-58.773
-56.808
-54.978
-53.293
-51.763
-50.389
-49.173
-48.121
-47.24
-46.544
-46.04
-45.72
-45.582
-45.621
-45.827
-46.191
-46.684
-47.255
-47.861
-48.467
-49.048
-49.597
-50.103
-50.536
-50.865
-51.055
-51.083
-50.955
-50.672
-50.212
-49.574
-48.779
-47.894
-47.065
-46.421
-46.046
-45.993
-46.266
-46.891
-47.952
-49.527
-51.685
-54.473
-57.852
-61.847
-66.631
-72.221
-78.42
-84.761
-90.379
-94.457
-96.502
-95.98
-92.26
-85.088
-74.631
-61.809
-48.58
-36.879
-28.097
-23.436
-23.802
-29.306
-39.092
-50.834
-60.534
-63.73
-56.219
-34.095
6.319
66.547
144.129
234.214
330.378
429.116
534.069
648.115
766.604
873.783
941.355
944.03
872.831
736.531
559.496
365.713
169.082
-21.488
-199.814
-353.777
-463.703
-517.177
-512.15
-458.124
-379.348
-298.614
-230.095
-182.372
-149.924
-122.229
-94.538
-63.287
-32.264
-9.351
3.237
4.984
-1.914
-12.579
-24.498
-35.608
-43.699
-48.323
-49.462
-47.266
-42.573
-35.983
-27.886
-19.349
-11.738
-5.61
-1.007
2.02
3.948
5.218
5.518
6.643
10.471
15.334
20.778
23.198
18.093
10.125
2.444
-0.274
8.416
22.684
37.568
49.665
53.411
52.72
51.569
50.829
52.923
56.422
59.507
62.531
65.282
67.917
70.826
73.778
76.59
79.33
82.027
84.681
87.313
89.959
92.642
95.411
98.325
101.379
104.562
107.883
111.337
114.92
118.633
122.468
126.418
130.482
134.655
138.929
143.296
147.745
152.261
156.83
161.432
166.049
170.662
175.25
179.792
184.267
188.652
192.925
197.063
201.043
204.842
208.436
211.802
214.918
217.763
220.315
222.555
224.464
226.026
227.224
228.045
228.477
228.51
228.136
227.348
226.143
224.519
222.477
220.018
217.146
213.869
210.195
206.136
201.704
196.914
191.782
186.328
180.571
174.533
168.238
161.708
154.97
148.049
140.973
133.768
126.461
119.082
111.656
104.212
96.776
89.375
82.034
74.777
67.629
60.61
53.743
47.046
40.536
34.231
28.145
22.29
16.678
11.318
6.219
1.387
-3.174
-7.463
-11.478
-15.22
-18.693
-21.903
-24.855
-27.559
-30.023
-32.259
-34.28
-36.098
-37.728
-39.186
-40.486
-41.646
-42.682
-43.61
-44.449
-45.214
-45.922
-46.59
-47.233
-47.866
-48.503
-49.158
-49.843
-50.571
-51.353
-52.2
-53.121
-54.125
-55.219
-56.411
-57.706
-59.107
-60.618
-62.24
-63.974
-65.819
-67.774
-69.834
-71.998
-74.26
-76.615
-79.057
-81.579
-84.173
-86.831
-89.545
-92.307
-95.108
-97.938
-100.788
-103.65
-106.517
-109.378
-112.227
-115.055
-117.855
-120.617
-123.335
-126
-128.605
-131.14
-133.599
-135.975
-138.261
-140.45
-142.537
-144.516
-146.382
-148.131
-149.759
-151.262
-152.637
-153.879
-154.986
-155.958
-156.792
-157.486
-158.04
-158.453
-158.725
-158.858
-158.852
-158.707
-158.424
-158.005
-157.45
-156.765
-155.95
-155.009
-153.947
-152.77
-151.487
-150.109
-148.646
-147.108
-145.508
-143.856
-142.166
-140.449
-138.714
-136.967
-135.219
-133.48
-131.762
-130.079
-128.442
-126.859
-125.343
-123.906
-122.558
-121.302
-120.138
-119.062
-118.079
-117.197
-116.434
-115.805
-115.315
-114.973
-114.785
-114.747
-114.854
-115.083
-115.391
-115.741
-116.102
-116.451
-116.777
-117.058
-117.266
-117.365
-117.312
-117.082
-116.655
-115.997
-115.088
-113.958
-112.652
-111.263
-109.906
-108.648
-107.555
-106.732
-106.283
-106.309
-106.924
-108.195
-110.21
-113.157
-117.144
-122.118
-127.828
-133.765
-139.345
-144.07
-147.393
-148.616
-147.245
-143.305
-137.462
-130.963
-125.209
-121.597
-121.263
-125.274
-134.669
-147.657
-161.155
-173.518
-181.182
-183.48
-180.481
-164.13
-128.085
-67.476
20.265
125.017
235.909
345.824
451.49
555.682
655.114
738.994
788.981
784.008
716.257
588.153
410.174
203.362
-13.17
-220.418
-393.397
-515.963
-583.637
-598.881
-578.072
-538.757
-485.695
-425.25
-362.51
-299.016
-246.687
-209.991
-183.561
-165.833
-149.83
-132.668
-120.246
-114.351
-115.454
-122.829
-131.425
-137.316
-139.357
-137.2
-131.401
-123.004
-112.756
-101.189
-89.338
-78.587
-69.537
-62.387
-57.161
-53.388
-50.648
-48.674
-46.957
-44.911
-42.254
-38.822
-34.553
-29.539
-23.771
-17.239
-10.044
-2.327
5.749
14.051
22.497
31.021
39.524
47.899
56.06
63.958
71.593
78.961
86.046
92.818
99.23
105.275
110.967
116.326
121.395
126.205
130.783
135.171
139.415
143.555
147.623
151.634
155.585
159.482
163.335
167.155
170.959
174.755
178.549
182.347
186.153
189.972
193.805
197.652
201.505
205.359
209.212
213.058
216.897
220.723
224.528
228.302
232.036
235.717
239.33
242.859
246.284
249.587
252.748
255.746
258.563
261.177
263.568
265.716
267.602
269.207
270.512
271.502
272.159
272.47
272.42
271.999
271.196
270.004
268.415
266.426
264.036
261.243
258.05
254.462
250.487
246.132
241.409
236.331
230.914
225.173
219.129
212.802
206.214
199.39
192.355
185.135
177.756
170.246
162.634
154.946
147.211
139.455
131.706
123.99
116.333
108.759
101.292
93.953
86.765
79.746
72.914
66.286
59.876
53.697
47.76
42.074
36.647
31.484
26.59
21.966
17.612
13.528
9.71
6.153
2.851
-0.203
-3.018
-5.603
-7.97
-10.129
-12.094
-13.877
-15.491
-16.949
-18.265
-19.452
-20.524
-21.493
-22.371
-23.172
-23.907
-24.586
-25.221
-25.82
-26.394
-26.949
-27.494
-28.036
-28.579
-29.13
-29.693
-30.271
-30.868
-31.485
-32.124
-32.786
-33.47
-34.178
-34.907
-35.656
-36.424
-37.209
-38.009
-38.82
-39.642
-40.471
-41.305
-42.142
-42.978
-43.811
-44.641
-45.463
-46.276
-47.079
-47.869
-48.647
-49.41
-50.159
-50.892
-51.608
-52.308
-52.99
-53.656
-54.302
-54.93
-55.538
-56.125
-56.692
-57.239
-57.762
-58.263
-58.74
-59.193
-59.622
-60.026
-60.403
-60.754
-61.078
-61.375
-61.646
-61.89
-62.108
-62.299
-62.469
-62.619
-62.751
-62.87
-62.977
-63.077
-63.173
-63.267
-63.362
-63.458
-63.555
-63.658
-63.77
-63.896
-64.042
-64.212
-64.41
-64.645
-64.923
-65.247
-65.612
-66.018
-66.462
-66.951
-67.498
-68.112
-68.794
-69.548
-70.376
-71.275
-72.239
-73.248
-74.26
-75.245
-76.173
-77.027
-77.809
-78.503
-79.093
-79.558
-79.863
-79.992
-79.947
-79.711
-79.268
-78.641
-77.88
-77.077
-76.378
-75.877
-75.635
-75.733
-76.223
-77.169
-78.638
-80.658
-83.261
-86.547
-90.661
-95.666
-101.531
-108.055
-114.809
-121.346
-127.17
-131.599
-133.847
-133.51
-130.527
-125.119
-118.42
-111.747
-106.25
-103.955
-105.414
-108.584
-112.073
-114.305
-117.294
-128.006
-147.273
-169.817
-180.822
-158.669
-95.69
5.444
130.677
259.188
384.913
503.127
608.025
691.857
733.892
722.549
658.2
549.545
415.776
267.609
110.651
-47.151
-196.057
-319.692
-404.776
-449.836
-464.797
-464.005
-457.446
-447.179
-428.396
-397.963
-357.945
-313.428
-270.135
-230.499
-194.524
-161.956
-133.132
-109.421
-91.258
-77.837
-68.874
-64.555
-64.864
-69.679
-77.618
-86.052
-93.523
-99.589
-103.723
-105.663
-105.19
-102.002
-96.773
-91.088
-85.853
-81.391
-77.849
-74.976
-72.644
-70.903
-69.406
-67.499
-64.741
-60.907
-55.99
-50.237
-43.85
-36.955
-29.718
-22.307
-14.872
-7.541
-0.372
6.647
13.539
20.316
26.967
33.453
39.725
45.76
51.561
57.142
62.535
67.778
72.901
77.93
82.905
87.852
92.785
97.711
102.618
107.491
112.328
117.132
121.907
126.66
131.388
136.085
140.75
145.375
149.954
154.478
158.934
163.31
167.598
171.788
175.873
179.85
183.709
187.441
191.039
194.493
197.791
200.924
203.88
206.645
209.209
211.559
213.684
215.575
217.222
218.616
219.748
220.611
221.197
221.499
221.512
221.231
220.651
219.768
218.581
217.089
215.291
213.191
210.79
208.095
205.112
201.848
198.313
194.517
190.472
186.188
181.679
176.959
172.042
166.945
161.683
156.276
150.739
145.092
139.353
133.539
127.67
121.764
115.837
109.907
103.993
98.111
92.278
86.511
80.825
75.236
69.759
64.406
59.19
54.123
49.214
44.472
39.905
35.52
31.322
27.314
23.501
19.884
16.464
13.24
10.211
7.373
4.722
2.254
-0.038
-2.16
-4.12
-5.927
-7.589
-9.115
-10.515
-11.8
-12.979
-14.065
-15.069
-16.002
-16.876
-17.702
-18.494
-19.26
-20.014
-20.764
-21.52
-22.293
-23.092
-23.923
-24.796
-25.716
-26.69
-27.725
-28.823
-29.988
-31.224
-32.531
-33.91
-35.361
-36.884
-38.475
-40.134
-41.855
-43.636
-45.473
-47.359
-49.291
-51.26
-53.261
-55.287
-57.329
-59.381
-61.433
-63.477
-65.504
-67.507
-69.477
-71.406
-73.285
-75.107
-76.864
-78.55
-80.157
-81.678
-83.107
-84.439
-85.667
-86.789
-87.799
-88.695
-89.474
-90.135
-90.675
-91.096
-91.398
-91.582
-91.649
-91.601
-91.441
-91.175
-90.806
-90.338
-89.776
-89.129
-88.407
-87.62
-86.776
-85.888
-84.965
-84.02
-83.063
-82.105
-81.15
-80.205
-79.277
-78.375
-77.506
-76.682
-75.911
-75.198
-74.554
-73.985
-73.498
-73.094
-72.77
-72.52
-72.347
-72.258
-72.268
-72.39
-72.63
-72.993
-73.48
-74.086
-74.794
-75.578
-76.395
-77.204
-77.971
-78.672
-79.288
-79.795
-80.166
-80.361
-80.338
-80.067
-79.52
-78.674
-77.528
-76.125
-74.53
-72.852
-71.212
-69.697
-68.409
-67.457
-66.956
-67.04
-67.831
-69.409
-71.887
-75.453
-80.165
-85.935
-92.459
-99.104
-105.232
-110.349
-113.866
-115.119
-113.845
-110.187
-104.836
-99.365
-95.263
-93.514
-95.194
-101.178
-111.42
-124.996
-139.795
-152.06
-158.065
-154.483
-137.554
-104.09
-51.754
19.184
104.458
198.164
293.678
387.249
480.621
573.026
659.683
731.337
767.495
749.677
669.23
522.773
325.649
105.882
-109.832
-288.892
-409.986
-472.855
-483.406
-461.835
-429.381
-391.848
-355.902
-320.809
-283.238
-249.317
-217.642
-187.681
-161.525
-136.387
-115.807
-102.747
-96.224
-96.699
-101.88
-109.272
-118.065
-126.382
-132.681
-136.459
-137.399
-135.726
-131.983
-126.487
-119.764
-112.884
-106.837
-102.115
-98.893
-96.954
-95.874
-95.425
-95.321
-95.069
-94.349
-92.998
-90.934
-88.277
-85.18
-81.7
-77.93
-73.976
-69.881
-65.699
-61.478
-57.231
-53.007
-48.854
-44.794
-40.855
-37.045
-33.357
-29.789
-26.328
-22.94
-19.603
-16.301
-13.02
-9.758
-6.505
-3.242
0.05
3.391
6.8
10.293
13.885
17.593
21.424
25.384
29.473
33.687
38.025
42.488
47.075
51.783
56.61
61.549
66.593
71.734
76.959
82.255
87.605
92.991
98.395
103.797
109.179
114.518
119.792
124.98
130.057
134.999
139.783
144.384
148.776
152.935
156.837
160.46
163.782
166.781
169.438
171.736
173.658
175.192
176.324
177.047
177.353
177.238
176.699
175.738
174.357
172.563
170.363
167.768
164.791
161.448
157.755
153.731
149.397
144.776
139.89
134.767
129.431
123.91
118.233
112.428
106.525
100.553
94.542
88.521
82.518
76.562
70.679
64.895
59.235
53.722
48.377
43.219
38.266
33.533
29.033
24.777
20.774
17.031
13.551
10.337
7.39
4.707
2.286
0.122
-1.792
-3.464
-4.904
-6.122
-7.129
-7.94
-8.568
-9.027
-9.332
-9.5
-9.546
-9.487
-9.339
-9.117
-8.838
-8.517
-8.169
-7.809
-7.45
-7.104
-6.784
-6.5
-6.261
-6.075
-5.95
-5.891
-5.902
-5.987
-6.147
-6.385
-6.7
-7.092
-7.561
-8.103
-8.717
-9.401
-10.15
-10.962
-11.833
-12.759
-13.736
-14.759
-15.825
-16.93
-18.069
-19.239
-20.434
-21.652
-22.889
-24.14
-25.404
-26.677
-27.957
-29.24
-30.526
-31.813
-33.101
-34.388
-35.674
-36.959
-38.245
-39.531
-40.82
-42.113
-43.409
-44.71
-46.017
-47.329
-48.647
-49.968
-51.293
-52.62
-53.945
-55.268
-56.586
-57.894
-59.19
-60.471
-61.734
-62.975
-64.192
-65.38
-66.537
-67.66
-68.748
-69.797
-70.806
-71.771
-72.694
-73.574
-74.415
-75.216
-75.98
-76.709
-77.404
-78.07
-78.707
-79.315
-79.892
-80.439
-80.96
-81.458
-81.942
-82.416
-82.885
-83.355
-83.833
-84.324
-84.829
-85.341
-85.856
-86.371
-86.894
-87.442
-88.028
-88.661
-89.349
-90.097
-90.901
-91.757
-92.643
-93.523
-94.366
-95.145
-95.841
-96.455
-96.975
-97.383
-97.654
-97.74
-97.604
-97.224
-96.561
-95.594
-94.354
-92.876
-91.235
-89.548
-87.868
-86.272
-84.876
-83.751
-83.004
-82.759
-83.073
-84.099
-86.102
-89.16
-93.208
-98.034
-103.019
-107.531
-111.131
-113.165
-112.868
-109.953
-104.609
-97.508
-90.298
-85.005
-82.971
-85.369
-93.705
-106.96
-122.996
-141.141
-157.634
-170.984
-180.712
-178.236
-156.821
-108.942
-28.58
74.846
190.883
309.339
420.915
530.942
642.068
747.478
836.257
884.912
871.773
792.097
650.43
461.172
247.571
28.529
-178.063
-350.238
-474.355
-546.534
-569.878
-558.101
-523.199
-467.324
-392.074
-301.316
-206.182
-125.324
-71.851
-47.824
-43.803
-46.174
-47.014
-46.126
-48.994
-59.354
-75.986
-94.085
-107.908
-114.878
-115.032
-109.467
-100.047
-88.245
-75.538
-63.966
-54.784
-48.346
-44.68
-43.322
-43.748
-45.567
-48.119
-50.598
-52.525
-53.703
-54.116
-53.918
-53.159
-51.783
-49.799
-47.265
-44.265
-40.909
-37.257
-33.327
-29.164
-24.845
-20.465
-16.107
-11.799
-7.532
-3.287
0.944
5.145
9.287
13.35
17.332
21.248
25.134
29.016
32.917
36.865
40.893
45.039
49.336
53.79
58.392
63.13
67.995
72.984
78.099
83.335
88.685
94.137
99.681
105.304
110.995
116.737
122.508
128.288
134.055
139.789
145.477
151.1
156.642
162.083
167.402
172.581
177.601
182.441
187.077
191.489
195.656
199.559
203.181
206.504
209.513
212.194
214.536
216.528
218.161
219.428
220.322
220.84
220.979
220.74
220.122
219.13
217.768
216.044
213.966
211.543
208.789
205.714
202.335
198.665
194.722
190.522
186.086
181.431
176.579
171.551
166.369
161.056
155.634
150.126
144.553
138.938
133.3
127.66
122.037
116.448
110.911
105.442
100.058
94.77
89.594
84.54
79.618
74.838
70.208
65.733
61.419
57.27
53.289
49.479
45.84
42.372
39.076
35.947
32.984
30.182
27.535
25.037
22.68
20.457
18.36
16.379
14.505
12.73
11.044
9.439
7.905
6.435
5.02
3.651
2.32
1.022
-0.253
-1.509
-2.752
-3.989
-5.222
-6.457
-7.696
-8.943
-10.201
-11.472
-12.758
-14.062
-15.384
-16.724
-18.085
-19.463
-20.86
-22.273
-23.699
-25.136
-26.581
-28.031
-29.484
-30.935
-32.382
-33.821
-35.251
-36.667
-38.067
-39.449
-40.809
-42.146
-43.457
-44.741
-45.996
-47.222
-48.417
-49.581
-50.714
-51.814
-52.882
-53.916
-54.914
-55.877
-56.803
-57.69
-58.536
-59.341
-60.103
-60.82
-61.492
-62.117
-62.694
-63.222
-63.699
-64.122
-64.491
-64.802
-65.053
-65.24
-65.361
-65.413
-65.392
-65.296
-65.12
-64.861
-64.516
-64.081
-63.554
-62.931
-62.209
-61.387
-60.464
-59.439
-58.313
-57.086
-55.762
-54.345
-52.84
-51.257
-49.601
-47.883
-46.11
-44.293
-42.444
-40.572
-38.685
-36.792
-34.902
-33.026
-31.179
-29.375
-27.626
-25.945
-24.342
-22.832
-21.429
-20.14
-18.967
-17.914
-16.986
-16.195
-15.565
-15.109
-14.835
-14.75
-14.858
-15.153
-15.632
-16.274
-17.04
-17.898
-18.814
-19.765
-20.748
-21.738
-22.704
-23.61
-24.403
-25.043
-25.521
-25.806
-25.876
-25.755
-25.473
-25.108
-24.787
-24.579
-24.556
-24.81
-25.409
-26.477
-28.139
-30.438
-33.467
-37.366
-42.172
-47.889
-54.344
-61.007
-67.391
-73.148
-77.789
-80.822
-81.892
-80.739
-77.767
-74.179
-71.033
-68.929
-68.586
-70.898
-76.612
-86.28
-97.597
-105.323
-105.641
-96.933
-82.221
-67.181
-51.459
-27.51
17.217
93.487
201.603
329.926
460.168
578.607
677.497
752.755
803.215
819.868
789.94
708.561
572.831
388.336
175.312
-46.908
-252.347
-410.014
-508.307
-545.706
-534.146
-501.807
-464.335
-427.802
-392.617
-349.307
-296.102
-238.715
-182.905
-136.592
-104.192
-84.986
-77.402
-79.214
-87.507
-99.773
-113.642
-126.241
-135.252
-139.762
-139.566
-135.109
-127.607
-118.257
-108.295
-99.312
-92.401
-87.933
-85.942
-86.045
-87.693
-90.462
-93.604
-96.208
-98.011
-98.84
-98.566
-97.723
-95.018
-89.161
-82.05
-74.377
-69.614
-71.902
-76.916
-81.773
-82.191
-72.252
-57.385
-42.185
-29.77
-25.259
-24.996
-25.289
-25.347
-22.927
-19.339
-16.259
-13.337
-10.746
-8.335
-5.717
-3.058
-0.492
2.074
4.68
7.313
9.976
12.688
15.463
18.342
21.379
24.564
27.887
31.361
34.985
38.759
42.684
46.747
50.935
55.244
59.668
64.198
68.831
73.555
78.359
83.228
88.147
93.095
98.053
102.998
107.904
112.747
117.503
122.145
126.649
130.99
135.144
139.086
142.792
146.24
149.406
152.271
154.813
157.016
158.862
160.336
161.424
162.115
162.401
162.272
161.725
160.757
159.367
157.558
155.335
152.706
149.681
146.272
142.495
138.366
133.904
129.133
124.073
118.751
113.191
107.421
101.467
95.36
89.126
82.795
76.395
69.956
63.505
57.071
50.68
44.358
38.131
32.023
26.057
20.254
14.636
9.222
4.027
-0.931
-5.64
-10.089
-14.268
-18.171
-21.794
-25.133
-28.188
-30.961
-33.455
-35.675
-37.629
-39.325
-40.772
-41.983
-42.97
-43.747
-44.328
-44.728
-44.964
-45.052
-45.008
-44.849
-44.591
-44.252
-43.849
-43.397
-42.914
-42.415
-41.916
-41.433
-40.978
-40.566
-40.209
-39.918
-39.701
-39.57
-39.53
-39.588
-39.75
-40.019
-40.4
-40.894
-41.503
-42.227
-43.064
-44.015
-45.075
-46.243
-47.514
-48.885
-50.352
-51.909
-53.552
-55.274
-57.069
-58.932
-60.856
-62.832
-64.855
-66.916
-69.009
-71.126
-73.26
-75.405
-77.553
-79.699
-81.837
-83.96
-86.063
-88.139
-90.184
-92.192
-94.159
-96.08
-97.95
-99.764
-101.519
-103.211
-104.835
-106.387
-107.863
-109.259
-110.57
-111.793
-112.924
-113.959
-114.896
-115.731
-116.463
-117.091
-117.614
-118.031
-118.341
-118.543
-118.64
-118.631
-118.517
-118.299
-117.979
-117.561
-117.051
-116.456
-115.782
-115.036
-114.227
-113.363
-112.453
-111.505
-110.524
-109.515
-108.483
-107.439
-106.39
-105.348
-104.322
-103.319
-102.35
-101.425
-100.552
-99.735
-98.973
-98.261
-97.603
-97.006
-96.488
-96.061
-95.734
-95.515
-95.41
-95.419
-95.535
-95.738
-95.992
-96.261
-96.516
-96.738
-96.911
-97.018
-97.034
-96.922
-96.643
-96.169
-95.474
-94.531
-93.329
-91.899
-90.291
-88.605
-86.953
-85.411
-84.063
-83.015
-82.375
-82.264
-82.779
-83.968
-85.925
-88.85
-92.858
-97.902
-103.701
-109.675
-115.284
-120.146
-123.732
-125.299
-124.369
-120.948
-115.748
-110.286
-105.843
-103.319
-103.968
-109.202
-119.869
-134.258
-148.145
-157.179
-158.208
-153.089
-145.783
-134.169
-112.861
-72.399
-1.323
100.681
228.788
376.207
526.633
664.121
769.535
818.142
800.482
720.931
594.906
449.251
297.716
141.195
-20.031
-185.491
-340.014
-460.679
-534.826
-561.615
-554.254
-529.907
-497.476
-458.621
-410.483
-352.034
-287.461
-222.934
-164.83
-117.742
-83.613
-62.622
-53.405
-53.772
-61.18
-73.227
-87.708
-101.927
-113.289
-120.279
-122.394
-120.078
-114.376
-106.19
-96.314
-85.964
-76.504
-68.744
-63.023
-59.204
-56.739
-55.201
-54.286
-53.54
-52.449
-50.695
-48.067
-44.485
-40.088
-34.991
-29.302
-23.206
-16.848
-10.333
-3.767
2.771
9.229
15.552
21.719
27.745
33.623
39.345
44.887
50.205
55.295
60.176
64.87
69.419
73.85
78.182
82.454
86.708
90.979
95.293
99.657
104.062
108.513
113.016
117.577
122.207
126.905
131.668
136.495
141.383
146.327
151.324
156.364
161.43
166.513
171.6
176.681
181.748
186.788
191.787
196.731
201.606
206.396
211.086
215.657
220.09
224.366
228.468
232.377
236.077
239.551
242.783
245.759
248.464
250.888
253.018
254.844
256.357
257.551
258.419
258.956
259.16
259.029
258.565
257.768
256.645
255.2
253.442
251.379
249.023
246.385
243.479
240.319
236.92
233.299
229.472
225.458
221.276
216.946
212.488
207.923
203.269
198.547
193.776
188.975
184.162
179.354
174.568
169.82
165.126
160.498
155.951
151.497
147.147
142.911
138.796
134.811
130.96
127.25
123.682
120.26
116.984
113.856
110.875
108.039
105.345
102.791
100.371
98.081
95.914
93.863
91.922
90.082
88.336
86.675
85.093
83.58
82.128
80.73
79.377
78.061
76.776
75.513
74.265
73.026
71.789
70.549
69.3
68.038
66.759
65.459
64.134
62.782
61.399
59.983
58.533
57.047
55.524
53.963
52.364
50.727
49.052
47.34
45.591
43.807
41.988
40.135
38.249
36.331
34.382
32.403
30.395
28.36
26.3
24.214
22.105
19.974
17.822
15.649
13.458
11.248
9.023
6.783
4.531
2.27
0.001
-2.274
-4.552
-6.831
-9.106
-11.377
-13.638
-15.888
-18.121
-20.334
-22.52
-24.676
-26.797
-28.876
-30.908
-32.887
-34.807
-36.663
-38.45
-40.164
-41.797
-43.346
-44.806
-46.172
-47.443
-48.614
-49.684
-50.65
-51.513
-52.275
-52.941
-53.512
-53.992
-54.387
-54.701
-54.941
-55.113
-55.22
-55.265
-55.255
-55.199
-55.107
-54.988
-54.853
-54.713
-54.583
-54.474
-54.401
-54.369
-54.381
-54.442
-54.56
-54.746
-55.02
-55.393
-55.87
-56.459
-57.167
-57.993
-58.929
-59.949
-61.014
-62.093
-63.161
-64.205
-65.222
-66.192
-67.094
-67.906
-68.602
-69.175
-69.621
-69.921
-70.059
-70.06
-69.977
-69.905
-69.969
-70.247
-70.786
-71.643
-72.879
-74.586
-76.857
-79.759
-83.314
-87.551
-92.576
-98.431
-105.018
-112.034
-118.905
-125.001
-129.836
-132.921
-133.675
-131.824
-127.465
-121.136
-114.177
-107.991
-103.582
-102.072
-104.476
-110.942
-120.834
-132.488
-142.711
-148.27
-146.165
-132.783
-104.809
-59.8
1.651
75.21
155.616
237.069
318.825
404.861
492.245
574.564
637.243
655.164
616.636
518.74
367.029
187.649
2.018
-170.513
-307.036
-402.841
-458.159
-478.294
-480.999
-475.382
-464.438
-448.465
-421.119
-381.723
-334.797
-284.898
-237.933
-196.915
-162.583
-136.453
-118.729
-108.643
-105.423
-107.668
-114.049
-123.733
-135.132
-145.738
-153.943
-159.075
-160.897
-159.833
-156.261
-150.298
-142.729
-134.967
-127.903
-121.931
-117.121
-113.121
-109.711
-106.865
-104.304
-101.537
-98.266
-94.35
-89.813
-84.865
-79.64
-74.176
-68.545
-62.845
-57.16
-51.572
-46.135
-40.839
-35.676
-30.652
-25.767
-21.029
-16.432
-11.955
-7.567
-3.245
1.026
5.256
9.448
13.609
17.75
21.886
26.031
30.195
34.388
38.62
42.901
47.245
51.656
56.137
60.684
65.295
69.968
74.705
79.503
84.36
89.268
94.221
99.212
104.228
109.257
114.282
119.285
124.245
129.144
133.96
138.672
143.261
147.703
151.978
156.064
159.94
163.584
166.975
170.09
172.91
175.413
177.581
179.394
180.836
181.889
182.541
182.779
182.591
181.968
180.905
179.396
177.439
175.033
172.182
168.889
165.162
161.012
156.45
151.493
146.157
140.46
134.424
128.071
121.424
114.507
107.347
99.969
92.401
84.671
76.807
68.838
60.795
52.705
44.6
36.506
28.455
20.473
12.587
4.825
-2.789
-10.23
-17.475
-24.502
-31.291
-37.824
-44.083
-50.054
-55.723
-61.08
-66.115
-70.82
-75.192
-79.225
-82.919
-86.273
-89.289
-91.968
-94.317
-96.339
-98.043
-99.437
-100.53
-101.334
-101.86
-102.123
-102.137
-101.915
-101.476
-100.835
-100.009
-99.016
-97.874
-96.602
-95.217
-93.74
-92.189
-90.581
-88.937
-87.274
-85.609
-83.961
-82.344
-80.774
-79.267
-77.837
-76.497
-75.259
-74.135
-73.135
-72.268
-71.544
-70.97
-70.55
-70.291
-70.195
-70.264
-70.498
-70.896
-71.455
-72.169
-73.035
-74.044
-75.19
-76.463
-77.851
-79.343
-80.926
-82.586
-84.309
-86.079
-87.878
-89.69
-91.495
-93.277
-95.018
-96.699
-98.3
-99.803
-101.191
-102.446
-103.551
-104.489
-105.244
-105.801
-106.148
-106.272
-106.164
-105.814
-105.217
-104.368
-103.268
-101.917
-100.319
-98.478
-96.399
-94.091
-91.565
-88.83
-85.896
-82.772
-79.474
-76.016
-72.416
-68.693
-64.865
-60.955
-56.985
-52.981
-48.968
-44.965
-40.985
-37.047
-33.17
-29.379
-25.707
-22.173
-18.792
-15.582
-12.56
-9.734
-7.106
-4.651
-2.325
-0.096
2.064
4.172
6.234
8.278
10.336
12.432
14.596
16.832
19.133
21.524
24.018
26.593
29.192
31.688
33.931
35.81
37.249
38.191
38.563
38.264
37.214
35.356
32.659
29.165
24.823
19.496
13.259
6.315
-0.973
-7.873
-13.719
-18.076
-20.27
-19.672
-16.26
-10.033
-1.374
8.119
16.907
23.986
27.793
28.543
29.089
29.812
30.712
31.583
28.674
25.929
34.101
63.219
123.456
212.188
315.147
418.518
512.178
597.59
679.195
754.295
811.625
830.009
794.872
705.077
568.645
402.785
224.591
47.356
-112.272
-236.002
-313.441
-341.661
-329.743
-298.321
-260.864
-223.887
-188.533
-148.805
-104.313
-59.464
-18.576
12.759
32
40.28
39.349
31.873
20.787
8.239
-3.711
-13.368
-19.571
-21.723
-19.917
-14.868
-7.679
0.471
8.351
15.128
20.283
23.508
24.897
24.719
23.378
21.47
19.601
18.125
17.229
16.979
17.299
18.159
19.526
21.285
23.323
25.561
27.958
30.517
33.249
36.121
39.074
42.04
44.96
47.814
50.597
53.308
55.95
58.525
61.046
63.543
66.037
68.543
71.068
73.616
76.194
78.823
81.522
84.314
87.214
90.235
93.384
96.667
100.086
103.639
107.322
111.126
115.043
119.067
123.193
127.412
131.715
136.091
140.526
145.008
149.519
154.042
158.557
163.046
167.487
171.861
176.146
180.322
184.367
188.259
191.977
195.5
198.807
201.876
204.687
207.221
209.458
211.381
212.973
214.22
215.107
215.624
215.76
215.508
214.862
213.818
212.375
210.534
208.296
205.667
202.654
199.263
195.506
191.396
186.946
182.172
177.093
171.726
166.091
160.211
154.108
147.803
141.323
134.69
127.931
121.07
114.135
107.15
100.143
93.138
86.161
79.237
72.389
65.641
59.014
52.528
46.204
40.057
34.106
28.363
22.842
17.555
12.51
7.716
3.179
-1.096
-5.107
-8.852
-12.331
-15.547
-18.501
-21.201
-23.65
-25.858
-27.831
-29.581
-31.119
-32.455
-33.603
-34.577
-35.391
-36.059
-36.598
-37.022
-37.349
-37.594
-37.773
-37.903
-37.999
-38.076
-38.15
-38.235
-38.345
-38.493
-38.691
-38.952
-39.286
-39.703
-40.212
-40.823
-41.542
-42.375
-43.328
-44.404
-45.608
-46.94
-48.402
-49.995
-51.717
-53.567
-55.542
-57.641
-59.858
-62.189
-64.628
-67.17
-69.806
-72.528
-75.33
-78.2
-81.128
-84.105
-87.12
-90.162
-93.219
-96.279
-99.332
-102.363
-105.361
-108.313
-111.208
-114.031
-116.771
-119.417
-121.955
-124.378
-126.673
-128.831
-130.842
-132.698
-134.39
-135.912
-137.256
-138.415
-139.384
-140.159
-140.737
-141.115
-141.291
-141.265
-141.04
-140.62
-140.011
-139.22
-138.255
-137.125
-135.841
-134.415
-132.857
-131.177
-129.387
-127.496
-125.521
-123.477
-121.382
-119.252
-117.101
-114.946
-112.802
-110.687
-108.61
-106.577
-104.595
-102.672
-100.827
-99.09
-97.481
-96.014
-94.701
-93.549
-92.557
-91.726
-91.037
-90.452
-89.942
-89.478
-89.044
-88.644
-88.262
-87.871
-87.436
-86.9
-86.225
-85.401
-84.401
-83.209
-81.859
-80.386
-78.88
-77.477
-76.25
-75.281
-74.663
-74.461
-74.783
-75.748
-77.428
-79.958
-83.517
-88.145
-93.771
-100.156
-106.759
-113.053
-118.628
-122.923
-125.307
-125.44
-123.385
-119.781
-115.928
-113.062
-111.871
-112.966
-117.128
-124.656
-134.931
-146.237
-155.472
-159.296
-155.434
-141.554
-114.764
-72.913
-14.549
58.962
142.072
229.461
316.762
401.768
486.378
568.895
642.017
695.78
715.151
687.751
611.593
487.911
323.868
137.022
-55.664
-230.836
-360.651
-434.893
-454.758
-435.025
-403.952
-376.979
-358.57
-346.108
-328.853
-303.842
-274.259
-243.121
-214.899
-191.099
-170.54
-153.244
-139.229
-127.778
-119.027
-113.405
-110.919
-111.698
-115.264
-119.939
-124.259
-127.696
-129.826
-130.429
-129.539
-127.002
-123.127
-118.974
-115.401
-112.79
-111.278
-110.656
-110.65
-111.157
-111.922
-112.489
-112.522
-111.815
-110.272
-107.976
-105.036
-101.544
-97.651
-93.508
-89.215
-84.861
-80.518
-76.244
-72.089
-68.084
-64.228
-60.516
-56.951
-53.546
-50.318
-47.274
-44.401
-41.67
-39.041
-36.486
-33.984
-31.509
-29.032
-26.518
-23.936
-21.277
-18.542
-15.731
-12.84
-9.86
-6.783
-3.606
-0.33
3.044
6.513
10.076
13.729
17.467
21.279
25.155
29.082
33.05
37.051
41.073
45.101
49.121
53.115
57.066
60.959
64.772
68.485
72.077
75.527
78.815
81.922
84.829
87.517
89.969
92.168
94.099
95.748
97.102
98.15
98.882
99.289
99.364
99.102
98.501
97.559
96.275
94.653
92.697
90.413
87.81
84.899
81.69
78.2
74.443
70.437
66.201
61.755
57.12
52.32
47.376
42.314
37.156
31.927
26.65
21.349
16.048
10.768
5.532
0.36
-4.727
-9.711
-14.574
-19.298
-23.869
-28.273
-32.496
-36.527
-40.357
-43.977
-47.379
-50.56
-53.514
-56.24
-58.738
-61.008
-63.053
-64.879
-66.49
-67.894
-69.098
-70.113
-70.947
-71.613
-72.12
-72.48
-72.707
-72.811
-72.806
-72.702
-72.514
-72.252
-71.929
-71.555
-71.141
-70.697
-70.234
-69.761
-69.287
-68.82
-68.368
-67.939
-67.539
-67.175
-66.853
-66.577
-66.35
-66.176
-66.057
-65.994
-65.989
-66.041
-66.151
-66.316
-66.537
-66.812
-67.14
-67.517
-67.942
-68.413
-68.928
-69.484
-70.079
-70.709
-71.374
-72.071
-72.798
-73.554
-74.337
-75.143
-75.972
-76.821
-77.688
-78.57
-79.464
-80.367
-81.276
-82.188
-83.1
-84.009
-84.911
-85.804
-86.685
-87.551
-88.4
-89.23
-90.036
-90.815
-91.568
-92.289
-92.979
-93.634
-94.251
-94.83
-95.372
-95.878
-96.347
-96.78
-97.178
-97.542
-97.873
-98.173
-98.438
-98.667
-98.858
-99.013
-99.136
-99.232
-99.302
-99.349
-99.376
-99.388
-99.391
-99.383
-99.358
-99.313
-99.248
-99.169
-99.096
-99.042
-99.01
-99.007
-99.033
-99.084
-99.159
-99.236
-99.279
-99.261
-99.156
-98.95
-98.652
-98.248
-97.72
-97.038
-96.153
-95.037
-93.688
-92.082
-90.213
-88.113
-85.823
-83.429
-81.062
-78.792
-76.693
-74.853
-73.337
-72.252
-71.711
-71.794
-72.633
-74.417
-77.216
-80.975
-85.461
-90.157
-94.548
-98.23
-100.687
-101.275
-99.585
-95.697
-90.289
-84.68
-80.25
-77.788
-77.911
-81.617
-89.506
-101.028
-114.426
-126.591
-133.923
-133.686
-123.361
-99.437
-58.445
0.019
72.855
155.423
241.8
332.003
431.621
538.787
646.213
736.139
781.454
769.395
699.195
581.9
439.786
285.293
126.933
-25.884
-163.945
-271.636
-338.741
-366.867
-366.779
-353.388
-335.624
-314.522
-286.42
-249.392
-206.229
-161.737
-121.159
-87.541
-61.861
-44.48
-34.725
-31.28
-32.662
-37.576
-45.011
-53.879
-62.569
-69.446
-73.625
-74.942
-73.777
-70.636
-65.859
-59.976
-54.003
-48.873
-45.064
-42.737
-41.657
-41.43
-41.841
-42.593
-43.203
-43.359
-42.894
-41.73
-39.977
-37.773
-35.168
-32.253
-29.131
-25.845
-22.445
-18.975
-15.44
-11.881
-8.342
-4.836
-1.386
2.005
5.348
8.65
11.925
15.208
18.521
21.88
25.3
28.781
32.334
35.972
39.712
43.57
47.558
51.687
55.967
60.408
65.011
69.776
74.696
79.76
84.961
90.292
95.745
101.311
106.98
112.74
118.577
124.477
130.425
136.399
142.379
148.342
154.266
160.127
165.902
171.567
177.098
182.47
187.659
192.642
197.395
201.895
206.12
210.047
213.656
216.93
219.85
222.402
224.571
226.346
227.719
228.684
229.235
229.372
229.093
228.402
227.303
225.803
223.909
221.632
218.986
215.983
212.642
208.98
205.017
200.775
196.277
191.545
186.604
181.48
176.197
170.783
165.262
159.662
154.008
148.325
142.639
136.973
131.35
125.79
120.315
114.941
109.684
104.559
99.579
94.753
90.092
85.601
81.287
77.153
73.201
69.431
65.844
62.435
59.203
56.14
53.241
50.499
47.904
45.447
43.119
40.909
38.804
36.793
34.864
33.005
31.203
29.447
27.724
26.024
24.336
22.652
20.962
19.259
17.536
15.787
14.009
12.197
10.349
8.464
6.54
4.58
2.585
0.558
-1.497
-3.577
-5.678
-7.795
-9.922
-12.053
-14.182
-16.305
-18.414
-20.502
-22.563
-24.589
-26.573
-28.509
-30.391
-32.212
-33.968
-35.652
-37.261
-38.792
-40.241
-41.604
-42.88
-44.065
-45.158
-46.158
-47.061
-47.867
-48.577
-49.192
-49.717
-50.156
-50.512
-50.789
-50.993
-51.127
-51.195
-51.195
-51.125
-50.983
-50.77
-50.487
-50.139
-49.727
-49.252
-48.72
-48.14
-47.519
-46.861
-46.161
-45.407
-44.597
-43.74
-42.854
-41.965
-41.092
-40.247
-39.452
-38.737
-38.121
-37.612
-37.191
-36.818
-36.47
-36.141
-35.841
-35.601
-35.417
-35.262
-35.11
-34.928
-34.693
-34.39
-33.96
-33.319
-32.432
-31.293
-29.944
-28.471
-26.897
-25.217
-23.424
-21.49
-19.432
-17.293
-15.086
-12.819
-10.513
-8.193
-5.953
-3.928
-2.164
-0.674
0.542
1.499
2.117
2.284
1.946
1.07
-0.389
-2.466
-5.229
-8.753
-13.056
-18.107
-23.908
-30.519
-37.925
-45.999
-54.433
-62.635
-69.907
-75.642
-79.138
-79.61
-76.765
-70.706
-61.93
-52.016
-42.977
-36.571
-34.761
-37.966
-44.082
-51.012
-57.476
-65.011
-76.629
-90.887
-99.436
-85.331
-33.362
59.18
183.982
320.672
451.127
572.443
685.589
790.423
880.31
933.752
928.322
855.617
716.895
523.83
300.161
67.959
-148.394
-319.584
-430.27
-477.997
-471.482
-431
-372.434
-304.639
-234.786
-170.5
-121.041
-93.32
-86.812
-92.81
-101.513
-106.756
-108.098
-110.045
-114.772
-121.757
-128.94
-132.29
-130.122
-123.192
-112.492
-100.077
-88.132
-77.472
-68.613
-62.071
-57.704
-55.342
-54.853
-55.597
-56.796
-57.975
-58.738
-58.844
-58.322
-57.131
-55.207
-52.606
-49.377
-45.572
-41.279
-36.527
-31.319
-25.69
-19.679
-13.356
-6.815
-0.145
6.567
13.256
19.889
26.434
32.866
39.175
45.346
51.385
57.316
63.148
68.888
74.54
80.107
85.601
91.046
96.459
101.854
107.24
112.619
117.997
123.378
128.762
134.147
139.527
144.894
150.244
155.573
160.878
166.156
171.4
176.602
181.756
186.855
191.889
196.847
201.718
206.488
211.143
215.671
220.057
224.287
228.346
232.218
235.889
239.345
242.571
245.554
248.279
250.733
252.905
254.782
256.355
257.612
258.545
259.147
259.411
259.331
258.905
258.128
257
255.521
253.693
251.52
249.006
246.157
242.983
239.493
235.699
231.614
227.254
222.633
217.769
212.681
207.388
201.91
196.267
190.48
184.571
178.56
172.471
166.322
160.138
153.937
147.742
141.571
135.445
129.383
123.402
117.52
111.753
106.116
100.622
95.286
90.117
85.126
80.322
75.713
71.303
67.098
63.1
59.312
55.732
52.359
49.19
46.222
43.449
40.865
38.461
36.231
34.166
32.254
30.486
28.85
27.335
25.929
24.618
23.391
22.233
21.132
20.074
19.047
18.037
17.032
16.019
14.986
13.922
12.816
11.657
10.436
9.144
7.774
6.318
4.772
3.129
1.387
-0.458
-2.408
-4.464
-6.627
-8.897
-11.272
-13.75
-16.328
-19.004
-21.772
-24.627
-27.562
-30.57
-33.643
-36.773
-39.951
-43.168
-46.412
-49.675
-52.944
-56.208
-59.456
-62.675
-65.853
-68.979
-72.04
-75.027
-77.927
-80.731
-83.429
-86.012
-88.471
-90.801
-92.994
-95.042
-96.94
-98.683
-100.268
-101.692
-102.95
-104.043
-104.97
-105.736
-106.345
-106.803
-107.116
-107.293
-107.342
-107.275
-107.1
-106.825
-106.459
-106.009
-105.488
-104.91
-104.288
-103.637
-102.969
-102.297
-101.634
-100.995
-100.385
-99.807
-99.262
-98.754
-98.296
-97.909
-97.613
-97.42
-97.345
-97.397
-97.578
-97.888
-98.309
-98.807
-99.351
-99.908
-100.456
-100.99
-101.491
-101.935
-102.287
-102.497
-102.524
-102.346
-101.926
-101.235
-100.304
-99.168
-97.911
-96.663
-95.501
-94.503
-93.796
-93.481
-93.671
-94.498
-96.041
-98.419
-101.868
-106.503
-112.268
-118.92
-125.918
-132.654
-138.644
-143.278
-145.78
-145.687
-143.058
-138.635
-133.831
-130.125
-128.915
-131.379
-138.574
-151.329
-167.523
-183.647
-197.598
-205.477
-206.588
-200.999
-180.251
-138.045
-70.178
25.275
137.197
253.693
369.123
481.233
589.911
690.335
767.434
798.895
770.825
681.943
541.105
366.796
176.348
-17.196
-197.113
-343.96
-445.098
-495.165
-501.942
-486.34
-462.627
-437.056
-409.691
-373.489
-327.456
-276.449
-225.632
-181.261
-146.829
-122.8
-108.747
-103.151
-103.99
-109.121
-116.743
-125.302
-132.898
-137.962
-139.769
-138.125
-133.568
-127.208
-119.831
-112.217
-105.485
-100.356
-97.137
-95.931
-96.414
-98.063
-100.488
-103.231
-105.735
-107.686
-108.912
-109.314
-108.925
-107.746
-105.78
-103.113
-99.884
-96.238
-92.284
-88.088
-83.704
-79.218
-74.724
-70.3
-65.981
-61.757
-57.621
-53.581
-49.658
-45.892
-42.285
-38.817
-35.464
-32.184
-28.946
-25.728
-22.492
-19.193
-15.797
-12.276
-8.62
-4.84
-0.937
3.092
7.247
11.535
15.957
20.504
25.171
29.953
34.839
39.823
44.888
50.016
55.191
60.397
65.618
70.843
76.056
81.24
86.377
91.45
96.44
101.325
106.086
110.697
115.137
119.384
123.416
127.212
130.752
134.017
136.986
139.644
141.974
143.961
145.592
146.856
147.742
148.243
148.351
148.064
147.379
146.297
144.82
142.952
140.7
138.072
135.079
131.733
128.047
124.037
119.72
115.113
110.236
105.11
99.757
94.2
88.465
82.574
76.555
70.432
64.232
57.979
51.7
45.418
39.158
32.943
26.796
20.739
14.791
8.972
3.3
-2.208
-7.539
-12.678
-17.614
-22.337
-26.839
-31.111
-35.149
-38.949
-42.507
-45.823
-48.895
-51.726
-54.319
-56.677
-58.805
-60.71
-62.401
-63.885
-65.172
-66.274
-67.202
-67.966
-68.581
-69.057
-69.408
-69.647
-69.787
-69.841
-69.822
-69.742
-69.615
-69.452
-69.265
-69.064
-68.86
-68.664
-68.484
-68.329
-68.208
-68.127
-68.094
-68.116
-68.199
-68.347
-68.564
-68.855
-69.221
-69.666
-70.189
-70.79
-71.469
-72.224
-73.052
-73.952
-74.918
-75.948
-77.036
-78.177
-79.365
-80.593
-81.855
-83.142
-84.446
-85.758
-87.07
-88.373
-89.658
-90.916
-92.137
-93.313
-94.434
-95.492
-96.479
-97.385
-98.202
-98.923
-99.542
-100.052
-100.449
-100.726
-100.883
-100.918
-100.834
-100.631
-100.313
-99.881
-99.34
-98.695
-97.952
-97.113
-96.183
-95.167
-94.073
-92.913
-91.7
-90.445
-89.158
-87.854
-86.542
-85.238
-83.951
-82.683
-81.437
-80.221
-79.049
-77.948
-76.938
-76.032
-75.239
-74.568
-74.018
-73.588
-73.265
-73.016
-72.814
-72.638
-72.475
-72.33
-72.203
-72.073
-71.914
-71.682
-71.336
-70.864
-70.251
-69.477
-68.56
-67.537
-66.472
-65.481
-64.648
-64.031
-63.707
-63.747
-64.234
-65.278
-66.972
-69.42
-72.782
-77.118
-82.366
-88.322
-94.545
-100.511
-105.745
-109.736
-111.968
-112.142
-110.263
-106.884
-103.122
-100.233
-99.418
-101.473
-106.751
-115.724
-128.427
-143.236
-157.932
-168.4
-168.21
-154.75
-127.467
-87.311
-41.206
9.329
69.333
142.86
239.433
361.472
497.81
635.256
752.632
830.236
857.622
825.635
734.722
589.998
400.071
185.57
-30.556
-220.315
-357.607
-435.183
-457.848
-444.287
-419.231
-393.887
-370.675
-345.163
-309.077
-262.474
-210.925
-160.55
-118.255
-87.797
-69.163
-61.351
-62.549
-70.506
-83.056
-98.334
-114.166
-127.887
-137.974
-143.854
-145.38
-143.24
-138.362
-131.394
-123.402
-115.912
-109.765
-105.29
-102.578
-101.199
-100.703
-100.859
-101.241
-101.283
-100.697
-99.34
-97.182
-94.402
-91.126
-87.394
-83.296
-78.922
-74.319
-69.554
-64.668
-59.68
-54.641
-49.6
-44.586
-39.632
-34.752
-29.944
-25.207
-20.529
-15.891
-11.279
-6.69
-2.123
2.418
6.938
11.447
15.956
20.479
25.026
29.607
34.232
38.909
43.64
48.423
53.251
58.118
63.016
67.944
72.896
77.868
82.855
87.847
92.837
97.815
102.771
107.689
112.553
117.347
122.055
126.659
131.143
135.488
139.679
143.696
147.522
151.141
154.536
157.689
160.583
163.204
165.535
167.563
169.276
170.66
171.707
172.407
172.752
172.739
172.363
171.622
170.517
169.048
167.219
165.037
162.508
159.641
156.447
152.94
149.135
145.048
140.697
136.102
131.282
126.261
121.06
115.703
110.213
104.616
98.935
93.195
87.422
81.64
75.874
70.147
64.482
58.903
53.43
48.084
42.884
37.848
32.992
28.331
23.879
19.646
15.644
11.881
8.362
5.094
2.079
-0.681
-3.185
-5.436
-7.438
-9.194
-10.712
-12
-13.067
-13.924
-14.584
-15.06
-15.365
-15.514
-15.523
-15.408
-15.187
-14.876
-14.492
-14.053
-13.576
-13.08
-12.58
-12.093
-11.635
-11.22
-10.864
-10.578
-10.375
-10.267
-10.263
-10.373
-10.606
-10.968
-11.467
-12.106
-12.888
-13.817
-14.893
-16.114
-17.478
-18.982
-20.62
-22.385
-24.271
-26.269
-28.371
-30.564
-32.838
-35.18
-37.579
-40.019
-42.487
-44.968
-47.447
-49.91
-52.344
-54.734
-57.066
-59.328
-61.509
-63.596
-65.58
-67.45
-69.196
-70.811
-72.285
-73.615
-74.794
-75.817
-76.683
-77.39
-77.941
-78.342
-78.6
-78.72
-78.711
-78.583
-78.349
-78.018
-77.602
-77.108
-76.544
-75.923
-75.258
-74.565
-73.858
-73.149
-72.453
-71.782
-71.149
-70.563
-70.03
-69.547
-69.117
-68.748
-68.452
-68.252
-68.168
-68.21
-68.387
-68.702
-69.147
-69.714
-70.378
-71.094
-71.824
-72.538
-73.202
-73.8
-74.306
-74.68
-74.888
-74.879
-74.605
-74.027
-73.122
-71.896
-70.382
-68.633
-66.71
-64.691
-62.665
-60.749
-59.078
-57.775
-56.973
-56.754
-57.229
-58.612
-60.99
-64.3
-68.289
-72.368
-75.906
-78.486
-79.611
-78.639
-75.356
-69.884
-62.841
-55.883
-50.653
-48.224
-49.726
-56.039
-67.046
-81.86
-98.467
-112.849
-120.64
-118.141
-101.624
-67.784
-14.551
58.53
150.038
254.2
362.165
467.521
564.063
647.023
715.547
761.664
775.238
751.534
683.593
575.499
437.567
273.111
95.164
-83.155
-246.407
-367.7
-434.647
-445.111
-408.651
-349.348
-282.279
-219.118
-164.505
-116.131
-77.861
-48.491
-27.994
-17.672
-12.88
-14.488
-22.68
-34.473
-49.386
-63.733
-73.676
-78.647
-78.292
-73.16
-64.865
-54.543
-43.222
-32.437
-23.282
-16.152
-11.255
-8.432
-7.205
-7.188
-7.894
-8.624
-8.965
-8.749
-7.876
-6.431
-4.491
-2.051
0.817
4
7.444
11.104
14.963
19.047
23.326
27.744
32.237
36.728
41.171
45.55
49.849
54.059
58.18
62.205
66.148
70.034
73.872
77.673
81.445
85.191
88.924
92.665
96.433
100.247
104.121
108.062
112.076
116.168
120.338
124.584
128.902
133.282
137.719
142.207
146.739
151.308
155.903
160.513
165.124
169.723
174.294
178.82
183.283
187.664
191.944
196.103
200.124
203.985
207.668
211.153
214.421
217.454
220.234
222.742
224.964
226.882
228.482
229.751
230.678
231.251
231.461
231.302
230.767
229.854
228.56
226.887
224.836
222.413
219.624
216.478
212.985
209.159
205.014
200.567
195.836
190.842
185.605
180.148
174.495
168.668
162.693
156.595
150.4
144.131
137.815
131.477
125.14
118.831
112.572
106.386
100.295
94.32
88.483
82.8
77.29
71.969
66.85
61.948
57.272
52.832
48.635
44.686
40.99
37.546
34.355
31.414
28.719
26.265
24.042
22.043
20.258
18.675
17.281
16.063
15.008
14.1
13.325
12.665
12.106
11.632
11.225
10.87
10.551
10.253
9.959
9.656
9.328
8.963
8.547
8.07
7.519
6.886
6.161
5.339
4.412
3.377
2.231
0.973
-0.396
-1.875
-3.461
-5.15
-6.936
-8.812
-10.77
-12.803
-14.899
-17.05
-19.244
-21.468
-23.711
-25.959
-28.201
-30.422
-32.611
-34.753
-36.837
-38.851
-40.782
-42.621
-44.356
-45.978
-47.478
-48.848
-50.081
-51.173
-52.118
-52.913
-53.557
-54.053
-54.404
-54.616
-54.695
-54.649
-54.487
-54.22
-53.86
-53.416
-52.897
-52.312
-51.673
-50.996
-50.295
-49.587
-48.885
-48.204
-47.557
-46.96
-46.425
-45.958
-45.561
-45.238
-44.997
-44.856
-44.837
-44.958
-45.23
-45.659
-46.249
-46.998
-47.9
-48.931
-50.055
-51.239
-52.456
-53.691
-54.935
-56.166
-57.356
-58.461
-59.426
-60.217
-60.801
-61.15
-61.268
-61.17
-60.894
-60.513
-60.1
-59.733
-59.504
-59.49
-59.784
-60.489
-61.675
-63.465
-66.042
-69.481
-73.758
-78.672
-83.746
-88.48
-92.468
-95.186
-96.052
-94.71
-91.106
-85.819
-80.101
-75.29
-72.512
-72.752
-76.943
-85.647
-98.605
-114.254
-129.718
-141.505
-146.24
-140.617
-121.058
-84.336
-28.015
46.558
133.959
228.645
324.139
419.333
518.777
618.847
712.175
783.486
806.022
767.363
665.524
505.422
310.495
101.953
-100.874
-271.879
-394.186
-461.17
-476.102
-455.297
-417.66
-372.386
-318.459
-254.52
-182.848
-112.45
-59.728
-32.233
-25.63
-32.798
-42.694
-50.576
-60.399
-73.526
-90.253
-108.33
-122.345
-130.151
-131.876
-128.196
-120.972
-111.674
-101.397
-91.824
-84.1
-78.579
-75.341
-74.014
-74.132
-75.345
-77.114
-78.79
-79.988
-80.538
-80.424
-79.788
-78.699
-77.165
-75.267
-73.082
-70.662
-68.045
-65.223
-62.18
-58.947
-55.573
-52.126
-48.661
-45.199
-41.751
-38.325
-34.92
-31.542
-28.188
-24.841
-21.492
-18.138
-14.774
-11.402
-8.016
-4.599
-1.138
2.383
5.977
9.65
13.405
17.242
21.159
25.15
29.207
33.319
37.474
41.665
45.882
50.114
54.349
58.574
62.772
66.93
71.028
75.049
78.973
82.78
86.451
89.965
93.304
96.448
99.378
102.076
104.524
106.706
108.606
110.208
111.5
112.467
113.1
113.389
113.327
112.907
112.126
110.982
109.476
107.609
105.387
102.816
99.905
96.664
93.105
89.244
85.097
80.681
76.017
71.125
66.029
60.753
55.322
49.762
44.098
38.359
32.569
26.756
20.946
15.165
9.437
3.786
-1.763
-7.189
-12.47
-17.587
-22.522
-27.257
-31.777
-36.07
-40.123
-43.928
-47.476
-50.761
-53.78
-56.531
-59.014
-61.229
-63.182
-64.878
-66.323
-67.528
-68.502
-69.258
-69.808
-70.167
-70.35
-70.374
-70.254
-70.008
-69.653
-69.207
-68.688
-68.112
-67.499
-66.864
-66.225
-65.597
-64.996
-64.438
-63.935
-63.501
-63.148
-62.887
-62.729
-62.683
-62.757
-62.956
-63.287
-63.752
-64.355
-65.097
-65.977
-66.994
-68.144
-69.425
-70.831
-72.356
-73.994
-75.737
-77.575
-79.498
-81.497
-83.561
-85.677
-87.833
-90.016
-92.215
-94.416
-96.608
-98.776
-100.909
-102.993
-105.017
-106.97
-108.84
-110.618
-112.292
-113.855
-115.3
-116.621
-117.814
-118.874
-119.8
-120.592
-121.252
-121.783
-122.189
-122.473
-122.643
-122.705
-122.667
-122.537
-122.323
-122.033
-121.678
-121.27
-120.824
-120.354
-119.875
-119.4
-118.943
-118.521
-118.144
-117.819
-117.551
-117.347
-117.219
-117.187
-117.267
-117.465
-117.79
-118.248
-118.839
-119.558
-120.387
-121.29
-122.236
-123.203
-124.176
-125.155
-126.135
-127.097
-128.017
-128.862
-129.607
-130.238
-130.743
-131.087
-131.266
-131.317
-131.31
-131.362
-131.567
-131.961
-132.574
-133.453
-134.657
-136.276
-138.399
-141.06
-144.328
-148.341
-153.18
-158.842
-165.114
-171.436
-177.142
-181.635
-184.284
-184.492
-181.891
-176.407
-168.63
-159.984
-152.155
-146.77
-145.303
-148.908
-158.192
-172.847
-191.034
-209.484
-224.212
-230.609
-224.226
-201.098
-157.406
-92.346
-9.44
86.741
190.112
296.102
406.465
519.993
628.666
720.898
776.233
774.563
710.322
584.114
404.492
194.775
-23.404
-223.97
-375.154
-464.998
-495.287
-480.987
-449.353
-415.815
-382.805
-345.955
-301.075
-250.59
-204.007
-171.873
-154.894
-150.855
-154.521
-158.25
-162.141
-165.757
-167.898
-170.044
-170.078
-165.997
-158.375
-147.453
-134.71
-122.622
-112.148
-103.517
-97.041
-92.653
-90.243
-89.761
-90.725
-92.313
-93.995
-95.453
-96.484
-97.1
-97.264
-96.888
-95.985
-94.618
-92.854
-90.779
-88.436
-85.828
-82.978
-79.925
-76.73
-73.478
-70.249
-67.117
-64.131
-61.309
-58.665
-56.204
-53.922
-51.812
-49.849
-47.989
-46.201
-44.461
-42.747
-41.038
-39.307
-37.514
-35.622
-33.604
-31.435
-29.096
-26.569
-23.837
-20.887
-17.709
-14.301
-10.661
-6.79
-2.682
1.664
6.246
11.061
16.101
21.357
26.822
32.48
38.317
44.313
50.447
56.696
63.037
69.446
75.894
82.355
88.8
95.201
101.529
107.754
113.846
119.776
125.514
131.031
136.301
141.295
145.988
150.356
154.376
158.027
161.291
164.152
166.595
168.608
170.181
171.307
171.981
172.202
171.97
171.287
170.161
168.6
166.615
164.22
161.43
158.264
154.74
150.881
146.707
142.245
137.517
132.551
127.373
122.012
116.495
110.851
105.109
99.296
93.441
87.572
81.713
75.892
70.132
64.457
58.889
53.448
48.156
43.028
38.081
33.33
28.787
24.465
20.37
16.513
12.897
9.528
6.408
3.539
0.921
-1.448
-3.57
-5.451
-7.094
-8.508
-9.7
-10.679
-11.456
-12.04
-12.444
-12.68
-12.759
-12.694
-12.499
-12.185
-11.766
-11.255
-10.663
-10.004
-9.289
-8.531
-7.738
-6.923
-6.095
-5.263
-4.434
-3.618
-2.822
-2.051
-1.312
-0.61
0.049
0.661
1.221
1.729
2.181
2.576
2.916
3.2
3.431
3.612
3.745
3.836
3.888
3.906
3.897
3.866
3.821
3.767
3.712
3.661
3.622
3.601
3.604
3.634
3.698
3.799
3.94
4.125
4.353
4.625
4.941
5.3
5.7
6.139
6.615
7.124
7.665
8.236
8.835
9.457
10.097
10.744
11.391
12.028
12.646
13.237
13.788
14.29
14.743
15.144
15.487
15.765
15.956
16.041
16.01
15.852
15.558
15.13
14.571
13.897
13.145
12.346
11.526
10.705
9.884
9.068
8.273
7.528
6.874
6.355
5.99
5.797
5.805
6.014
6.382
6.833
7.236
7.478
7.507
7.269
6.698
5.717
4.208
2.05
-0.829
-4.556
-9.337
-15.25
-22.228
-29.959
-37.76
-44.911
-50.842
-54.923
-56.461
-55.153
-51.196
-45.458
-39.751
-35.888
-35.058
-38.312
-46.57
-59.926
-77.368
-96.446
-112.909
-122.263
-120.673
-104.405
-70.141
-15.236
60.32
152.723
256.491
365.124
474.698
585.808
695.909
797.557
879.614
924.27
916.836
854.316
738.348
578.236
392.621
196.738
10.491
-141.739
-249.82
-310.304
-329.87
-328.839
-318.482
-302.717
-282.148
-250.546
-207.75
-159.289
-110.007
-65.676
-29.746
-3.182
13.539
21.28
21.92
17.444
9.217
-1.746
-14.272
-26.612
-36.778
-43.672
-47.264
-48.07
-46.515
-42.877
-37.522
-31.311
-25.511
-20.936
-17.86
-16.184
-15.584
-15.825
-16.685
-17.825
-18.883
-19.398
-18.777
-16.978
-14.318
-10.851
-7.138
-2.184
6.746
18.709
31.163
39.567
35.849
21.209
3.523
-9.102
-5.191
14.975
40.733
63.921
75.426
74.47
69.09
63.965
62.58
65.645
69.866
73.944
77.955
81.818
86.054
90.742
95.452
100.076
104.683
109.251
113.752
118.195
122.593
126.983
131.436
135.96
140.51
145.067
149.622
154.162
158.675
163.142
167.533
171.83
176.02
180.088
184.018
187.794
191.397
194.81
198.02
201.009
203.762
206.266
208.504
210.465
212.136
213.508
214.57
215.315
215.737
215.83
215.594
215.026
214.127
212.899
211.348
209.479
207.301
204.824
202.061
199.023
195.727
192.19
188.428
184.461
180.308
175.989
171.524
166.935
162.244
157.472
152.64
147.772
142.888
138.011
133.16
128.357
123.621
118.969
114.419
109.988
105.69
101.539
97.548
93.726
90.085
86.631
83.37
80.308
77.447
74.789
72.333
70.079
68.023
66.164
64.495
63.01
61.704
60.569
59.595
58.774
58.096
57.549
57.122
56.803
56.581
56.443
56.377
56.37
56.41
56.485
56.584
56.693
56.803
56.902
56.981
57.03
57.04
57.003
56.912
56.761
56.544
56.254
55.889
55.442
54.911
54.292
53.583
52.781
51.885
50.893
49.806
48.623
47.346
45.976
44.514
42.962
41.324
39.602
37.798
35.918
33.965
31.942
29.854
27.707
25.504
23.252
20.955
18.616
16.241
13.834
11.399
8.94
6.46
3.962
1.451
-1.07
-3.597
-6.126
-8.657
-11.184
-13.706
-16.22
-18.724
-21.221
-23.712
-26.196
-28.676
-31.154
-33.631
-36.11
-38.593
-41.079
-43.566
-46.055
-48.549
-51.051
-53.566
-56.096
-58.645
-61.215
-63.808
-66.428
-69.072
-71.729
-74.395
-77.063
-79.738
-82.435
-85.162
-87.919
-90.709
-93.529
-96.371
-99.226
-102.066
-104.85
-107.546
-110.122
-112.561
-114.864
-117.016
-118.992
-120.765
-122.286
-123.524
-124.469
-125.093
-125.383
-125.371
-125.094
-124.638
-124.13
-123.64
-123.239
-123.018
-123.037
-123.399
-124.219
-125.57
-127.58
-130.421
-134.15
-138.721
-143.923
-149.264
-154.212
-158.326
-161.063
-161.825
-160.294
-156.58
-151.303
-145.696
-141.121
-138.464
-138.459
-142.015
-149.463
-160.097
-172.282
-183.129
-189.042
-187.291
-175.531
-150.658
-110.339
-53.652
19.431
105.159
196.47
287.586
372.18
447.316
515.578
576.141
626.593
656.624
646.661
582.299
454.136
270.711
60.38
-144.368
-307.701
-410.556
-455.939
-457.72
-440.883
-421.802
-403.393
-383.525
-354.127
-312.83
-264.708
-215.558
-172.154
-138.71
-115.974
-103.327
-99.221
-101.625
-108.288
-117.476
-127.592
-136.617
-143.005
-145.989
-145.255
-141.271
-135.047
-127.271
-118.72
-110.529
-103.458
-97.917
-94.089
-91.724
-90.383
-89.725
-89.349
-88.753
-87.647
-85.892
-83.427
-80.341
-76.729
-72.657
-68.219
-63.522
-58.63
-53.579
-48.406
-43.126
-37.783
-32.447
-27.165
-21.969
-16.877
-11.891
-7.012
-2.241
2.431
7.026
11.558
16.035
20.46
24.831
29.15
33.43
37.683
41.921
46.151
50.382
54.617
58.857
63.102
67.346
71.581
75.796
79.986
84.143
88.263
92.339
96.364
100.329
104.225
108.042
111.768
115.389
118.892
122.262
125.484
128.546
131.434
134.135
136.635
138.922
140.984
142.812
144.393
145.718
146.778
147.566
148.074
148.297
148.232
147.875
147.225
146.281
145.044
143.518
141.706
139.611
137.242
134.604
131.707
128.56
125.175
121.564
117.741
113.72
109.517
105.149
100.633
95.987
91.229
86.377
81.45
76.466
71.444
66.401
61.354
56.321
51.317
46.36
41.464
36.641
31.907
27.272
22.748
18.345
14.072
9.937
5.947
2.108
-1.574
-5.095
-8.453
-11.645
-14.67
-17.528
-20.22
-22.747
-25.114
-27.322
-29.378
-31.287
-33.054
-34.687
-36.193
-37.579
-38.855
-40.028
-41.108
-42.104
-43.025
-43.881
-44.679
-45.431
-46.145
-46.83
-47.495
-48.149
-48.8
-49.457
-50.128
-50.82
-51.542
-52.299
-53.1
-53.95
-54.856
-55.822
-56.855
-57.957
-59.134
-60.386
-61.717
-63.128
-64.618
-66.188
-67.835
-69.557
-71.352
-73.215
-75.143
-77.129
-79.169
-81.256
-83.382
-85.541
-87.724
-89.921
-92.123
-94.32
-96.503
-98.66
-100.782
-102.856
-104.872
-106.817
-108.682
-110.455
-112.126
-113.682
-115.114
-116.412
-117.569
-118.576
-119.426
-120.113
-120.633
-120.985
-121.169
-121.185
-121.036
-120.725
-120.255
-119.634
-118.867
-117.959
-116.915
-115.74
-114.445
-113.04
-111.536
-109.946
-108.284
-106.561
-104.793
-102.997
-101.184
-99.361
-97.536
-95.719
-93.924
-92.177
-90.498
-88.899
-87.396
-85.998
-84.712
-83.539
-82.462
-81.45
-80.473
-79.503
-78.523
-77.532
-76.513
-75.445
-74.307
-73.056
-71.672
-70.152
-68.477
-66.628
-64.627
-62.524
-60.414
-58.446
-56.724
-55.312
-54.29
-53.731
-53.733
-54.394
-55.768
-57.89
-60.822
-64.706
-69.622
-75.489
-82.012
-88.661
-94.883
-100.187
-104.027
-105.694
-104.715
-101.134
-95.429
-88.663
-82.113
-76.897
-74.257
-75.638
-80.606
-86.467
-90.667
-91.01
-89.155
-89.852
-92.843
-90.801
-69.317
-13.094
81.498
203.026
331.095
445.821
540.048
620.39
692.424
755.835
797.44
791.399
723.503
591.057
404.392
194.034
-11.654
-187.875
-314.725
-392.411
-431.215
-445.126
-446.216
-432.933
-395.875
-329.277
-239.19
-146.195
-74.236
-36.795
-32.042
-44.531
-57.413
-63.145
-62.58
-62.182
-67.074
-76.44
-86.531
-93.328
-94.917
-91.818
-85.703
-78.385
-71.06
-64.89
-60.708
-58.704
-58.91
-61.043
-64.606
-69.211
-74.348
-79.368
-83.873
-87.681
-90.701
-92.997
-94.564
-95.284
-95.181
-94.345
-92.877
-90.927
-88.579
-85.864
-82.861
-79.669
-76.386
-73.102
-69.842
-66.588
-63.339
-60.101
-56.908
-53.81
-50.815
-47.907
-45.066
-42.247
-39.422
-36.57
-33.651
-30.619
-27.44
-24.086
-20.55
-16.848
-12.985
-8.962
-4.777
-0.426
4.09
8.759
13.577
18.533
23.617
28.819
34.121
39.503
44.944
50.428
55.937
61.457
66.971
72.458
77.899
83.275
88.563
93.742
98.788
103.677
108.385
112.889
117.166
121.195
124.955
128.426
131.59
134.43
136.931
139.078
140.86
142.267
143.291
143.926
144.167
144.014
143.467
142.528
141.202
139.498
137.425
134.994
132.22
129.118
125.706
122.002
118.028
113.805
109.356
104.705
99.877
94.898
89.794
84.594
79.323
74.009
68.678
63.357
58.071
52.846
47.703
42.667
37.757
32.995
28.399
23.985
19.768
15.763
11.98
8.429
5.119
2.055
-0.758
-3.319
-5.627
-7.682
-9.488
-11.048
-12.368
-13.456
-14.32
-14.968
-15.413
-15.665
-15.739
-15.647
-15.403
-15.024
-14.524
-13.92
-13.227
-12.462
-11.642
-10.783
-9.9
-9.01
-8.128
-7.27
-6.451
-5.684
-4.982
-4.36
-3.828
-3.399
-3.082
-2.888
-2.826
-2.902
-3.125
-3.5
-4.033
-4.729
-5.591
-6.621
-7.822
-9.194
-10.737
-12.451
-14.334
-16.382
-18.592
-20.959
-23.479
-26.143
-28.945
-31.876
-34.927
-38.089
-41.351
-44.702
-48.129
-51.621
-55.165
-58.746
-62.351
-65.965
-69.572
-73.158
-76.707
-80.203
-83.632
-86.977
-90.223
-93.356
-96.36
-99.222
-101.928
-104.464
-106.819
-108.981
-110.94
-112.688
-114.216
-115.516
-116.585
-117.422
-118.027
-118.401
-118.546
-118.467
-118.17
-117.662
-116.95
-116.041
-114.941
-113.659
-112.205
-110.596
-108.847
-106.972
-104.987
-102.909
-100.756
-98.549
-96.301
-94.02
-91.717
-89.404
-87.102
-84.845
-82.66
-80.563
-78.574
-76.707
-74.97
-73.369
-71.89
-70.502
-69.177
-67.89
-66.625
-65.387
-64.164
-62.935
-61.671
-60.323
-58.857
-57.266
-55.522
-53.61
-51.56
-49.422
-47.288
-45.298
-43.544
-42.102
-41.082
-40.576
-40.681
-41.49
-43.061
-45.493
-48.972
-53.618
-59.397
-66.062
-73.12
-80.081
-86.52
-91.884
-95.459
-96.64
-95.298
-92.067
-88.145
-84.581
-82.38
-82.677
-86.489
-94.898
-106.732
-117.616
-124.783
-126.83
-123.948
-120.058
-111.308
-86.504
-37.665
42.304
149.776
268.739
388.524
503.909
611.813
711.315
793.805
840.462
833.98
768.116
644.671
475.05
280.598
78.362
-110.946
-260.854
-360.146
-405.489
-405.628
-385.858
-361.3
-337.782
-315.349
-284.759
-243.615
-196.612
-148.776
-106.886
-74.853
-52.911
-40.478
-36.1
-37.877
-43.858
-52.435
-62.047
-70.694
-76.831
-79.691
-78.946
-74.987
-68.706
-60.735
-51.877
-43.388
-36.156
-30.636
-27.034
-25.111
-24.439
-24.688
-25.437
-26.115
-26.369
-26.026
-25.006
-23.402
-21.31
-18.784
-15.91
-12.797
-9.503
-6.062
-2.507
1.154
4.876
8.584
12.224
15.759
19.167
22.447
25.601
28.631
31.55
34.389
37.169
39.903
42.597
45.254
47.881
50.496
53.118
55.766
58.456
61.202
64.016
66.906
69.876
72.924
76.048
79.239
82.493
85.806
89.176
92.599
96.068
99.578
103.12
106.686
110.265
113.844
117.409
120.945
124.438
127.874
131.237
134.514
137.69
140.748
143.676
146.458
149.081
151.529
153.787
155.843
157.684
159.297
160.671
161.797
162.664
163.265
163.595
163.648
163.421
162.911
162.118
161.044
159.689
158.06
156.16
153.996
151.578
148.914
146.016
142.895
139.565
136.04
132.332
128.457
124.431
120.268
115.984
111.596
107.12
102.571
97.967
93.324
88.657
83.984
79.319
74.678
70.074
65.522
61.034
56.622
52.296
48.067
43.945
39.936
36.048
32.286
28.656
25.16
21.802
18.582
15.502
12.561
9.759
7.092
4.56
2.159
-0.114
-2.262
-4.29
-6.202
-8.003
-9.698
-11.292
-12.792
-14.204
-15.535
-16.79
-17.977
-19.101
-20.17
-21.19
-22.167
-23.106
-24.013
-24.895
-25.757
-26.604
-27.441
-28.274
-29.107
-29.944
-30.79
-31.648
-32.521
-33.411
-34.321
-35.253
-36.209
-37.191
-38.201
-39.242
-40.315
-41.423
-42.568
-43.753
-44.976
-46.241
-47.548
-48.897
-50.29
-51.728
-53.21
-54.739
-56.313
-57.935
-59.604
-61.318
-63.076
-64.876
-66.713
-68.585
-70.485
-72.409
-74.349
-76.301
-78.261
-80.224
-82.185
-84.141
-86.09
-88.03
-89.956
-91.861
-93.738
-95.575
-97.361
-99.084
-100.731
-102.289
-103.749
-105.099
-106.334
-107.451
-108.443
-109.304
-110.021
-110.575
-110.957
-111.165
-111.201
-111.075
-110.807
-110.423
-109.97
-109.497
-109.037
-108.612
-108.224
-107.854
-107.491
-107.12
-106.723
-106.303
-105.858
-105.378
-104.866
-104.315
-103.694
-102.955
-102.005
-100.734
-99.085
-97.032
-94.589
-91.821
-88.788
-85.574
-82.3
-79.05
-75.889
-72.873
-70.001
-67.281
-64.77
-62.538
-60.715
-59.456
-58.842
-58.914
-59.676
-61.062
-63.001
-65.388
-68.042
-70.836
-73.719
-76.677
-79.788
-83.126
-86.683
-90.432
-94.317
-98.244
-102.186
-106.166
-110.219
-114.452
-119.032
-124.127
-129.908
-136.37
-143.126
-149.558
-154.96
-158.599
-159.825
-158.129
-153.163
-145.287
-136.005
-127.326
-121.299
-118.469
-117.745
-118.785
-122.272
-132.152
-153.283
-184.311
-216.547
-233.031
-215.044
-153.434
-53.247
67.613
190.066
301.725
402.649
503.39
606.309
705.02
782.516
812.865
785.745
702.864
576.954
429.695
269.914
104.266
-60.857
-217.387
-343.397
-424.669
-458.39
-451.677
-426.677
-398.247
-370.477
-343.249
-309.931
-268.699
-223.808
-179.318
-139.785
-108.032
-84.644
-69.312
-61.076
-58.75
-60.818
-66.013
-73.119
-80.212
-85.608
-88.534
-88.664
-86.278
-82.173
-76.876
-71.041
-65.861
-62.16
-60.226
-60.16
-61.633
-64.115
-67.315
-70.832
-74.072
-76.675
-78.43
-79.173
-78.932
-77.761
-75.646
-72.669
-68.97
-64.661
-59.903
-54.83
-49.531
-44.115
-38.667
-33.237
-27.87
-22.585
-17.381
-12.281
-7.313
-2.489
2.171
6.665
11.006
15.211
19.323
23.388
27.449
31.546
35.702
39.931
44.242
48.634
53.094
57.612
62.184
66.801
71.463
76.169
80.91
85.678
90.46
95.241
100.004
104.733
109.413
114.028
118.562
123.003
127.341
131.566
135.666
139.627
143.435
147.076
150.534
153.795
156.843
159.663
162.241
164.562
166.616
168.39
169.874
171.057
171.932
172.49
172.725
172.633
172.21
171.454
170.363
168.94
167.186
165.105
162.704
159.989
156.968
153.654
150.058
146.193
142.074
137.717
133.138
128.356
123.388
118.254
112.974
107.569
102.059
96.466
90.813
85.121
79.413
73.708
68.03
62.4
56.836
51.36
45.991
40.746
35.643
30.698
25.926
21.341
16.956
12.783
8.832
5.112
1.631
-1.607
-4.596
-7.335
-9.821
-12.055
-14.04
-15.777
-17.273
-18.531
-19.559
-20.365
-20.957
-21.346
-21.542
-21.557
-21.404
-21.095
-20.645
-20.067
-19.375
-18.586
-17.712
-16.768
-15.77
-14.732
-13.669
-12.594
-11.523
-10.469
-9.446
-8.466
-7.542
-6.685
-5.905
-5.212
-4.616
-4.122
-3.739
-3.471
-3.323
-3.298
-3.399
-3.628
-3.984
-4.467
-5.076
-5.807
-6.657
-7.623
-8.699
-9.88
-11.16
-12.531
-13.986
-15.519
-17.119
-18.778
-20.486
-22.233
-24.007
-25.799
-27.596
-29.386
-31.159
-32.901
-34.601
-36.248
-37.829
-39.332
-40.747
-42.061
-43.265
-44.35
-45.305
-46.123
-46.795
-47.315
-47.677
-47.876
-47.908
-47.768
-47.454
-46.965
-46.299
-45.457
-44.439
-43.247
-41.885
-40.361
-38.681
-36.855
-34.891
-32.799
-30.591
-28.281
-25.88
-23.398
-20.847
-18.238
-15.586
-12.907
-10.218
-7.535
-4.875
-2.253
0.313
2.806
5.215
7.535
9.76
11.883
13.889
15.754
17.463
19.009
20.379
21.57
22.579
23.413
24.097
24.673
25.176
25.639
26.082
26.507
26.936
27.393
27.905
28.516
29.251
30.112
31.123
32.304
33.631
35.052
36.47
37.731
38.731
39.401
39.662
39.45
38.669
37.21
34.994
31.967
28.063
23.159
17.201
10.277
2.699
-4.94
-11.979
-17.832
-21.906
-23.491
-22.171
-17.998
-11.485
-3.977
3.02
8.443
11.133
9.847
4.153
-5.366
-17.205
-28.232
-34.589
-32.86
-19.286
10.425
58.225
122.626
201.147
289.226
384.29
489.778
605.56
724.279
830.73
900.218
912.61
861.99
755.103
607.484
433.426
244.231
50.536
-131.399
-276.505
-368.794
-404.004
-390.821
-354.886
-311.48
-265.356
-221.2
-173.11
-123.287
-81.595
-47.514
-23.212
-8.342
3.563
10.773
12.534
10.997
5.79
0.011
-3.27
-3.663
-0.698
5.195
12.744
20.997
29.021
35.624
40.143
42.321
42.064
39.685
35.629
30.368
24.523
18.733
13.387
8.723
4.883
1.886
-0.172
-1.224
-1.313
-0.494
1.144
3.511
6.53
10.07
13.978
18.113
22.337
26.556
30.732
34.822
38.801
42.657
46.349
49.855
53.18
56.313
59.261
62.047
64.699
67.28
69.858
72.485
75.205
78.048
81.026
84.151
87.426
90.841
94.389
98.067
101.869
105.798
109.852
114.025
118.307
122.684
127.136
131.647
136.201
140.78
145.367
149.946
154.501
159.021
163.493
167.899
172.222
176.442
180.537
184.487
188.27
191.865
195.249
198.402
201.305
203.941
206.294
208.348
210.09
211.506
212.587
213.321
213.702
213.723
213.379
212.666
211.584
210.134
208.318
206.142
203.61
200.732
197.518
193.979
190.13
185.984
181.558
176.868
171.934
166.776
161.415
155.873
150.173
144.338
138.393
132.361
126.265
120.128
113.971
107.817
101.686
95.596
89.568
83.617
77.761
72.016
66.393
60.907
55.569
50.387
45.37
40.526
35.858
31.372
27.07
22.953
19.022
15.275
11.71
8.322
5.107
2.057
-0.835
-3.577
-6.179
-8.652
-11.005
-13.251
-15.4
-17.463
-19.452
-21.378
-23.253
-25.086
-26.888
-28.669
-30.439
-32.206
-33.978
-35.763
-37.567
-39.398
-41.259
-43.156
-45.093
-47.075
-49.103
-51.181
-53.309
-55.488
-57.718
-59.996
-62.322
-64.692
-67.101
-69.545
-72.019
-74.516
-77.03
-79.556
-82.085
-84.609
-87.122
-89.615
-92.081
-94.511
-96.896
-99.23
-101.503
-103.709
-105.841
-107.891
-109.853
-111.718
-113.481
-115.135
-116.673
-118.088
-119.373
-120.521
-121.527
-122.386
-123.093
-123.643
-124.033
-124.26
-124.322
-124.219
-123.95
-123.515
-122.915
-122.152
-121.229
-120.151
-118.921
-117.545
-116.029
-114.38
-112.609
-110.728
-108.745
-106.672
-104.52
-102.302
-100.031
-97.718
-95.373
-93.004
-90.624
-88.246
-85.885
-83.557
-81.277
-79.059
-76.917
-74.868
-72.926
-71.097
-69.382
-67.786
-66.312
-64.975
-63.795
-62.787
-61.959
-61.318
-60.87
-60.609
-60.527
-60.6
-60.786
-61.052
-61.372
-61.733
-62.133
-62.56
-62.993
-63.403
-63.753
-64.018
-64.184
-64.217
-64.102
-63.865
-63.551
-63.249
-63.068
-63.065
-63.288
-63.804
-64.676
-65.988
-67.84
-70.286
-73.405
-77.352
-82.19
-87.884
-94.206
-100.585
-106.379
-111.05
-114.009
-114.662
-112.722
-108.27
-101.974
-95.408
-90.292
-87.966
-89.641
-96.276
-108.081
-124.313
-142.996
-160.375
-172.123
-174.493
-163.772
-136.593
-90.688
-24.929
58.404
152.83
251.417
346.793
435.647
519.84
596.083
659.674
700.215
697.906
644.035
535.446
374.956
185.473
-11.799
-194.182
-333.696
-422.376
-460.965
-458.641
-438.241
-411.852
-383.588
-353.859
-315.638
-268.353
-217.478
-168.351
-127.795
-99.456
-82.818
-76.796
-79.515
-88.393
-101.123
-115.408
-128.655
-138.908
-145.35
-147.667
-146.086
-141.501
-134.868
-127.25
-120.059
-114.29
-110.331
-108.32
-108.04
-109.051
-110.969
-113.337
-115.565
-117.294
-118.382
-118.77
-118.558
-117.846
-116.678
-115.138
-113.326
-111.296
-109.083
-106.716
-104.203
-101.583
-98.924
-96.272
-93.658
-91.099
-88.591
-86.128
-83.702
-81.296
-78.883
-76.446
-73.97
-71.449
-68.879
-66.249
-63.543
-60.743
-57.828
-54.782
-51.591
-48.244
-44.734
-41.058
-37.215
-33.212
-29.053
-24.743
-20.287
-15.688
-10.95
-6.079
-1.086
4.021
9.231
14.528
19.898
25.323
30.783
36.259
41.733
47.184
52.591
57.934
63.19
68.339
73.358
78.226
82.921
87.422
91.709
95.761
99.559
103.087
106.326
109.262
111.879
114.165
116.109
117.7
118.932
119.798
120.293
120.416
120.165
119.542
118.55
117.194
115.482
113.422
111.025
108.304
105.272
101.944
98.338
94.47
90.36
86.028
81.493
76.776
71.899
66.884
61.752
56.526
51.226
45.874
40.491
35.097
29.712
24.354
19.042
13.793
8.624
3.548
-1.421
-6.268
-10.983
-15.556
-19.978
-24.24
-28.335
-32.259
-36.007
-39.575
-42.962
-46.168
-49.191
-52.033
-54.697
-57.186
-59.503
-61.654
-63.643
-65.477
-67.161
-68.704
-70.112
-71.392
-72.553
-73.601
-74.546
-75.394
-76.153
-76.831
-77.437
-77.976
-78.457
-78.888
-79.275
-79.624
-79.944
-80.239
-80.516
-80.78
-81.038
-81.294
-81.553
-81.819
-82.096
-82.389
-82.7
-83.032
-83.387
-83.767
-84.174
-84.608
-85.07
-85.559
-86.075
-86.617
-87.184
-87.776
-88.391
-89.026
-89.68
-90.349
-91.031
-91.722
-92.419
-93.116
-93.809
-94.493
-95.163
-95.815
-96.442
-97.039
-97.6
-98.12
-98.593
-99.016
-99.382
-99.686
-99.925
-100.095
-100.195
-100.222
-100.175
-100.053
-99.857
-99.591
-99.259
-98.864
-98.41
-97.904
-97.35
-96.757
-96.131
-95.477
-94.8
-94.105
-93.403
-92.704
-92.017
-91.354
-90.725
-90.142
-89.615
-89.156
-88.772
-88.463
-88.232
-88.082
-88.023
-88.073
-88.244
-88.541
-88.97
-89.532
-90.225
-91.038
-91.946
-92.907
-93.891
-94.869
-95.823
-96.752
-97.638
-98.46
-99.193
-99.794
-100.238
-100.509
-100.578
-100.419
-100.048
-99.507
-98.877
-98.285
-97.809
-97.489
-97.383
-97.542
-98.048
-98.997
-100.464
-102.494
-105.166
-108.632
-112.949
-118.033
-123.553
-128.877
-133.379
-136.56
-137.913
-136.865
-133.161
-126.98
-119.077
-111.021
-104.333
-100.037
-99.106
-102.355
-109.849
-120.768
-133.114
-143.413
-148.085
-143.882
-127.446
-95.87
-46.83
19.426
99.014
186.927
277.489
367.564
459.181
551.377
637.41
706.235
739.312
720.848
647.819
523.924
359.57
172.336
-22.424
-206.96
-357.29
-457.012
-500.275
-492.401
-453.326
-403.919
-355.724
-312.918
-272.282
-228.732
-182.793
-138.168
-99.914
-73.047
-58.385
-54.212
-57.955
-66.245
-76.905
-88.315
-98.291
-105.091
-107.887
-106.441
-101.364
-93.838
-84.692
-74.806
-65.421
-57.422
-51.275
-47.144
-44.751
-43.601
-43.298
-43.408
-43.4
-42.953
-41.919
-40.234
-37.986
-35.276
-32.169
-28.757
-25.145
-21.386
-17.506
-13.533
-9.476
-5.371
-1.291
2.721
6.639
10.448
14.155
17.767
21.29
24.742
28.156
31.557
34.962
38.382
41.823
45.297
48.823
52.425
56.123
59.936
63.876
67.955
72.181
76.554
81.074
85.733
90.52
95.427
100.446
105.567
110.78
116.074
121.432
126.837
132.274
137.72
143.153
148.548
153.881
159.124
164.254
169.245
174.071
178.706
183.124
187.303
191.217
194.845
198.162
201.149
203.786
206.055
207.94
209.428
210.507
211.166
211.4
211.202
210.572
209.51
208.018
206.102
203.769
201.031
197.899
194.389
190.518
186.306
181.773
176.943
171.841
166.494
160.928
155.171
149.254
143.206
137.056
130.834
124.571
118.295
112.036
105.821
99.678
93.634
87.714
81.94
76.336
70.922
65.717
60.737
55.999
51.515
47.297
43.354
39.693
36.319
33.236
30.444
27.943
25.731
23.803
22.154
20.775
19.658
18.793
18.166
17.767
17.58
17.592
17.786
18.146
18.657
19.301
20.062
20.922
21.865
22.873
23.93
25.019
26.124
27.229
28.318
29.378
30.393
31.351
32.239
33.044
33.757
34.366
34.862
35.238
35.485
35.599
35.573
35.403
35.087
34.623
34.01
33.249
32.339
31.284
30.086
28.748
27.276
25.674
23.949
22.105
20.153
18.098
15.951
13.721
11.416
9.047
6.625
4.162
1.669
-0.841
-3.357
-5.865
-8.352
-10.804
-13.209
-15.553
-17.825
-20.011
-22.099
-24.078
-25.938
-27.669
-29.263
-30.712
-32.008
-33.145
-34.119
-34.927
-35.566
-36.033
-36.329
-36.455
-36.416
-36.218
-35.867
-35.37
-34.735
-33.972
-33.094
-32.11
-31.03
-29.864
-28.624
-27.323
-25.981
-24.613
-23.235
-21.865
-20.516
-19.206
-17.952
-16.765
-15.649
-14.611
-13.659
-12.807
-12.08
-11.496
-11.06
-10.782
-10.664
-10.701
-10.892
-11.214
-11.631
-12.113
-12.633
-13.174
-13.737
-14.305
-14.847
-15.331
-15.704
-15.93
-15.997
-15.876
-15.544
-15.025
-14.351
-13.597
-12.886
-12.273
-11.816
-11.592
-11.656
-12.122
-13.093
-14.595
-16.726
-19.63
-23.352
-27.905
-33.095
-38.382
-43.307
-47.539
-50.573
-51.91
-51.16
-48.084
-43.181
-37.691
-32.665
-28.724
-26.724
-27.754
-32.529
-41.506
-52.401
-60.105
-62.215
-57.73
-47.447
-35.313
-16.727
17.346
72.115
154.652
260.5
377.137
500.151
621.098
731.712
824.769
880.897
883.858
828.323
717.324
564.851
385.649
191.994
-3.502
-183.46
-323.714
-408.023
-432.072
-407.205
-359.67
-308.004
-261.378
-220.992
-179.025
-134.551
-91.824
-55.161
-31.165
-21.773
-24.096
-35.052
-50.384
-65.687
-78.963
-88.894
-93.933
-93.832
-89.117
-80.571
-70.032
-59.695
-50.636
-43.457
-38.692
-36.258
-35.99
-37.672
-40.561
-43.768
-46.747
-49.178
-50.913
-52.015
-52.491
-52.306
-51.525
-50.249
-48.572
-46.567
-44.253
-41.621
-38.68
-35.49
-32.126
-28.68
-25.238
-21.849
-18.537
-15.319
-12.204
-9.197
-6.3
-3.504
-0.782
1.886
4.506
7.087
9.634
12.161
14.694
17.26
19.879
22.566
25.328
28.172
31.105
34.129
37.244
40.445
43.725
47.078
50.502
53.992
57.543
61.149
64.797
68.479
72.182
75.893
79.596
83.276
86.913
90.489
93.986
97.386
100.668
103.815
106.806
109.623
112.247
114.661
116.848
118.789
120.471
121.877
122.996
123.815
124.325
124.517
124.384
123.922
123.127
122
120.541
118.753
116.641
114.213
111.478
108.449
105.137
101.56
97.734
93.678
89.415
84.965
80.352
75.599
70.733
65.778
60.76
55.705
50.638
45.585
40.571
35.619
30.754
25.997
21.37
16.891
12.58
8.453
4.525
0.81
-2.68
-5.936
-8.95
-11.714
-14.226
-16.483
-18.484
-20.233
-21.732
-22.986
-24.004
-24.794
-25.365
-25.729
-25.899
-25.888
-25.712
-25.385
-24.925
-24.348
-23.672
-22.913
-22.088
-21.214
-20.308
-19.384
-18.457
-17.544
-16.656
-15.806
-15.008
-14.273
-13.61
-13.03
-12.541
-12.149
-11.86
-11.68
-11.61
-11.655
-11.813
-12.086
-12.472
-12.97
-13.577
-14.29
-15.102
-16.01
-17.006
-18.084
-19.235
-20.453
-21.727
-23.05
-24.412
-25.806
-27.223
-28.655
-30.095
-31.534
-32.965
-34.38
-35.773
-37.137
-38.463
-39.745
-40.978
-42.155
-43.273
-44.327
-45.312
-46.225
-47.064
-47.826
-48.511
-49.118
-49.645
-50.093
-50.465
-50.762
-50.988
-51.145
-51.239
-51.276
-51.263
-51.209
-51.122
-51.011
-50.884
-50.751
-50.622
-50.505
-50.406
-50.332
-50.288
-50.283
-50.327
-50.43
-50.6
-50.846
-51.175
-51.595
-52.114
-52.734
-53.451
-54.261
-55.163
-56.163
-57.275
-58.509
-59.867
-61.351
-62.962
-64.693
-66.535
-68.465
-70.443
-72.436
-74.415
-76.36
-78.271
-80.129
-81.907
-83.578
-85.095
-86.424
-87.554
-88.453
-89.098
-89.515
-89.736
-89.836
-89.935
-90.095
-90.374
-90.856
-91.594
-92.696
-94.279
-96.411
-99.215
-102.858
-107.41
-112.876
-119.082
-125.528
-131.649
-136.929
-140.727
-142.446
-141.711
-138.424
-133.142
-127.119
-121.823
-118.625
-118.742
-123.234
-132.716
-146.965
-164.398
-182.057
-196.17
-202.916
-198.613
-179.462
-142.154
-84.304
-6.948
84.721
184.525
285.583
385.317
486.184
585.483
675.806
741.954
761.308
721.984
623.789
476.765
300.392
109.772
-82.873
-263.39
-415.453
-521.916
-573.854
-574.995
-542.096
-495.672
-448.061
-403.843
-359.905
-310.714
-257.317
-203.685
-154.786
-116.586
-90.703
-75.73
-70.2
-71.663
-77.57
-86.36
-95.902
-103.325
-107.092
-106.739
-102.235
-94.469
-84.599
-73.372
-61.93
-51.879
-44.047
-38.686
-35.763
-34.693
-34.873
-35.973
-37.505
-38.851
-39.696
-39.852
-39.218
-37.893
-35.903
-33.204
-29.832
-25.857
-21.34
-16.399
-11.164
-5.729
-0.212
5.289
10.727
16.058
21.27
26.367
31.353
36.226
40.977
45.59
50.048
54.349
58.504
62.549
66.538
70.529
74.572
78.708
82.961
87.35
91.88
96.545
101.328
106.212
111.186
116.243
121.377
126.582
131.843
137.142
142.455
147.758
153.024
158.225
163.333
168.318
173.156
177.824
182.301
186.568
190.602
194.38
197.88
201.078
203.954
206.485
208.651
210.432
211.812
212.777
213.316
213.421
213.085
212.306
211.081
209.414
207.308
204.771
201.812
198.443
194.679
190.537
186.035
181.196
176.043
170.601
164.897
158.96
152.821
146.509
140.056
133.493
126.852
120.166
113.465
106.783
100.149
93.596
87.151
80.844
74.702
68.748
63.006
57.497
52.237
47.243
42.527
38.102
33.974
30.149
26.632
23.422
20.518
17.917
15.613
13.596
11.859
10.388
9.172
8.195
7.441
6.894
6.536
6.347
6.309
6.4
6.601
6.89
7.246
7.65
8.08
8.516
8.941
9.336
9.683
9.968
10.176
10.293
10.309
10.213
9.998
9.657
9.186
8.581
7.842
6.969
5.964
4.83
3.57
2.191
0.698
-0.902
-2.601
-4.391
-6.262
-8.205
-10.207
-12.259
-14.347
-16.46
-18.584
-20.709
-22.821
-24.907
-26.957
-28.959
-30.901
-32.773
-34.563
-36.263
-37.864
-39.358
-40.738
-42
-43.139
-44.153
-45.042
-45.805
-46.443
-46.96
-47.357
-47.639
-47.807
-47.868
-47.826
-47.686
-47.455
-47.141
-46.753
-46.304
-45.806
-45.271
-44.711
-44.14
-43.573
-43.019
-42.491
-41.996
-41.541
-41.139
-40.801
-40.54
-40.366
-40.285
-40.306
-40.436
-40.68
-41.041
-41.515
-42.094
-42.775
-43.56
-44.46
-45.49
-46.664
-47.986
-49.458
-51.081
-52.854
-54.768
-56.804
-58.924
-61.089
-63.27
-65.446
-67.595
-69.691
-71.691
-73.538
-75.173
-76.548
-77.632
-78.414
-78.89
-79.069
-78.971
-78.635
-78.154
-77.646
-77.241
-77.075
-77.273
-77.94
-79.242
-81.438
-84.66
-88.898
-93.946
-99.315
-104.549
-109.349
-113.304
-115.867
-116.741
-115.934
-114.059
-112.504
-112.566
-115.152
-121.081
-131.005
-145.126
-162.986
-182.756
-201.201
-214.87
-220.505
-214.828
-194.799
-157.735
-101.554
-27.831
58.463
152.644
248.949
345.407
444.404
541.287
627.823
690.772
710.279
677.921
595.427
469.553
314.539
142.634
-36.273
-205.789
-345.461
-440.951
-485.518
-486.281
-463.442
-431.085
-396.114
-359.234
-313.937
-259.807
-202.215
-146.929
-101.33
-69.543
-51.435
-46.038
-51.273
-64.153
-81.844
-101.541
-120.154
-135.231
-145.63
-150.886
-151.219
-147.672
-141.423
-133.747
-126.278
-120.219
-116.042
-113.911
-113.61
-114.635
-116.586
-118.992
-121.227
-122.927
-123.957
-124.279
-124.022
-123.319
-122.218
-120.803
-119.18
-117.392
-115.481
-113.475
-111.366
-109.187
-106.971
-104.73
-102.477
-100.204
-97.885
-95.506
-93.048
-90.485
-87.797
-84.963
-81.961
-78.784
-75.429
-71.89
-68.16
-64.233
-60.111
-55.816
-51.389
-46.869
-42.285
-37.649
-32.959
-28.219
-23.437
-18.616
-13.762
-8.854
-3.865
1.221
6.406
11.697
17.118
22.727
28.621
34.869
41.498
48.49
55.796
63.367
71.141
79.037
86.944
94.706
102.179
109.254
115.847
121.876
127.231
131.756
135.259
137.592
138.667
138.445
136.924
134.105
130.026
124.77
118.479
111.348
103.542
95.183
86.365
77.183
67.755
58.244
48.827
39.644
30.795
22.361
14.402
6.984
0.135
-6.157
-11.958
-17.364
-22.44
-27.213
-31.69
-35.875
-39.785
-43.454
-46.914
-50.171
-53.225
-56.08
-58.739
-61.214
-63.5
-65.57
-67.376
-68.864
-70
-70.772
-71.176
-71.215
-70.891
-70.211
-69.191
-67.861
-66.247
-64.368
-62.245
-59.891
-57.329
-54.588
-51.699
-48.694
-45.599
-42.441
-39.241
-36.021
-32.801
-29.598
-26.423
-23.284
-20.191
-17.157
-14.191
-11.306
-8.509
-5.81
-3.216
-0.735
1.628
3.868
5.985
7.977
9.845
11.589
13.212
14.717
16.107
17.387
18.56
19.632
20.608
21.494
22.297
23.022
23.677
24.268
24.802
25.287
25.729
26.132
26.504
26.849
27.173
27.482
27.779
28.068
28.355
28.642
28.934
29.234
29.544
29.866
30.201
30.551
30.916
31.293
31.679
32.069
32.458
32.844
33.218
33.574
33.907
34.211
34.485
34.727
34.93
35.09
35.197
35.244
35.226
35.137
34.973
34.725
34.391
33.973
33.478
32.91
32.269
31.543
30.715
29.773
28.711
27.526
26.219
24.792
23.255
21.631
19.956
18.263
16.573
14.897
13.239
11.613
10.048
8.592
7.294
6.191
5.314
4.687
4.308
4.161
4.205
4.368
4.578
4.763
4.843
4.741
4.378
3.656
2.483
0.712
-1.886
-5.425
-9.863
-14.976
-20.267
-25.19
-29.334
-32.187
-33.075
-31.65
-28.102
-23.2
-18.483
-15.589
-15.569
-19.317
-27.851
-41.499
-59.403
-79.527
-98.357
-111.791
-116.541
-109.501
-87.286
-47.434
10.884
86.736
176.873
276.285
379.849
481.646
574.235
650.077
702.292
724.846
715.649
676.879
610.743
521.028
407.992
266.754
100.308
-81.571
-257.881
-396.047
-476.597
-495.364
-463.668
-409.226
-351.321
-297.628
-248.952
-198.215
-144.067
-91.581
-46.761
-15.7
0.062
2.502
-5.563
-20.489
-39.15
-58.615
-75.447
-87.525
-94.134
-95.168
-91.385
-83.939
-73.891
-62.705
-52.212
-43.513
-37.035
-32.858
-30.594
-29.796
-30.097
-30.964
-31.747
-32.075
-31.811
-30.938
-29.602
-27.907
-25.89
-23.633
-21.234
-18.745
-16.196
-13.604
-10.963
-8.302
-5.682
-3.145
-0.715
1.595
3.792
5.888
7.89
9.815
11.692
13.541
15.372
17.2
19.029
20.876
22.761
24.708
26.74
28.878
31.141
33.541
36.088
38.786
41.633
44.625
47.753
51.009
54.388
57.881
61.478
65.168
68.937
72.769
76.646
80.55
84.456
88.343
92.184
95.956
99.635
103.195
106.612
109.862
112.918
115.759
118.359
120.697
122.749
124.495
125.914
126.99
127.706
128.048
128.005
127.569
126.734
125.496
123.857
121.818
119.386
116.568
113.375
109.821
105.923
101.698
97.168
92.354
87.284
81.982
76.479
70.803
64.986
59.059
53.055
47.006
40.946
34.909
28.926
23.031
17.257
11.633
6.192
0.961
-4.032
-8.761
-13.204
-17.338
-21.147
-24.613
-27.723
-30.467
-32.836
-34.825
-36.433
-37.657
-38.502
-38.973
-39.077
-38.824
-38.225
-37.296
-36.051
-34.51
-32.69
-30.614
-28.302
-25.779
-23.069
-20.196
-17.187
-14.068
-10.864
-7.603
-4.311
-1.012
2.267
5.504
8.675
11.758
14.735
17.585
20.292
22.842
25.221
27.418
29.424
31.233
32.839
34.24
35.436
36.427
37.215
37.805
38.203
38.417
38.456
38.331
38.052
37.635
37.093
36.441
35.697
34.877
33.996
33.073
32.126
31.17
30.222
29.296
28.408
27.571
26.798
26.101
25.488
24.968
24.547
24.231
24.022
23.92
23.923
24.023
24.217
24.496
24.852
25.272
25.744
26.256
26.797
27.357
27.922
28.475
29
29.479
29.893
30.225
30.455
30.565
30.535
30.356
30.022
29.526
28.862
28.017
26.972
25.717
24.244
22.545
20.613
18.451
16.069
13.498
10.779
7.953
5.054
2.105
-0.873
-3.85
-6.797
-9.675
-12.444
-15.08
-17.551
-19.813
-21.833
-23.608
-25.177
-26.622
-28.046
-29.517
-31.076
-32.773
-34.686
-36.918
-39.559
-42.672
-46.271
-50.41
-55.26
-60.9
-67.22
-73.845
-80.138
-85.516
-89.574
-91.824
-91.66
-88.849
-83.568
-76.765
-70.092
-64.684
-61.518
-61.892
-66.527
-75.512
-86.994
-95.933
-98.68
-93.743
-81.633
-66.428
-45.041
-8.63
49.93
138.728
252.338
371.987
482.938
570.784
629.754
669.131
690.837
689.46
657.801
577.947
442.786
265.597
67.441
-118.163
-262.402
-357.257
-407.169
-428.578
-438.096
-441.16
-435.461
-414.086
-374.043
-318.617
-254.449
-190.368
-131.999
-82.281
-44.144
-18.405
-4.462
-1.545
-7.707
-20.253
-37.19
-56.008
-73.294
-87.005
-96.328
-100.962
-101.574
-99.16
-94.286
-88.029
-82.144
-77.608
-74.866
-74.094
-74.809
-76.558
-79.145
-82.115
-84.836
-86.972
-88.281
-88.629
-88.187
-87.074
-85.367
-83.261
-80.898
-78.37
-75.778
-73.18
-70.602
-68.079
-65.619
-63.198
-60.815
-58.47
-56.176
-53.968
-51.841
-49.774
-47.742
-45.701
-43.624
-41.494
-39.277
-36.934
-34.437
-31.764
-28.912
-25.894
-22.71
-19.358
-15.84
-12.152
-8.303
-4.306
-0.171
4.09
8.461
12.929
17.471
22.063
26.683
31.31
35.922
40.501
45.025
49.47
53.812
58.03
62.1
66
69.705
73.19
76.435
79.417
82.118
84.519
86.604
88.359
89.772
90.833
91.535
91.871
91.838
91.437
90.668
89.537
88.049
86.213
84.041
81.545
78.741
75.646
72.28
68.663
64.818
60.768
56.539
52.157
47.647
43.037
38.354
33.626
28.88
24.144
19.445
14.809
10.262
5.828
1.528
-2.614
-6.581
-10.354
-13.918
-17.261
-20.369
-23.235
-25.85
-28.21
-30.311
-32.153
-33.736
-35.063
-36.139
-36.97
-37.564
-37.931
-38.082
-38.03
-37.788
-37.37
-36.793
-36.073
-35.227
-34.273
-33.229
-32.113
-30.944
-29.742
-28.523
-27.307
-26.11
-24.949
-23.84
-22.796
-21.832
-20.959
-20.188
-19.528
-18.989
-18.576
-18.295
-18.151
-18.147
-18.285
-18.564
-18.985
-19.545
-20.241
-21.069
-22.022
-23.092
-24.274
-25.557
-26.931
-28.388
-29.914
-31.497
-33.126
-34.786
-36.464
-38.146
-39.816
-41.461
-43.067
-44.621
-46.11
-47.522
-48.845
-50.07
-51.187
-52.188
-53.066
-53.813
-54.425
-54.897
-55.225
-55.408
-55.444
-55.334
-55.079
-54.684
-54.158
-53.51
-52.748
-51.882
-50.925
-49.889
-48.789
-47.635
-46.437
-45.207
-43.959
-42.709
-41.475
-40.272
-39.115
-38.016
-36.991
-36.053
-35.212
-34.476
-33.842
-33.317
-32.908
-32.636
-32.526
-32.594
-32.85
-33.297
-33.942
-34.783
-35.816
-37.017
-38.345
-39.764
-41.242
-42.76
-44.304
-45.844
-47.339
-48.732
-49.962
-50.983
-51.767
-52.296
-52.561
-52.571
-52.348
-51.942
-51.448
-50.973
-50.629
-50.527
-50.77
-51.451
-52.717
-54.783
-57.771
-61.684
-66.344
-71.353
-76.292
-80.822
-84.519
-86.846
-87.456
-86.284
-83.798
-81.109
-79.392
-79.619
-82.645
-89.147
-99.385
-113.045
-128.648
-143.511
-154.516
-158.305
-151.73
-132.2
-97.371
-45.557
23.166
107.06
201.731
300.076
394.981
480.798
555.723
620.029
672.953
709.962
718.049
684.725
601.207
463.942
288.386
96.644
-85.791
-227.661
-317.706
-358.818
-361.132
-347.771
-330.064
-306.102
-276.941
-241.766
-205.517
-182.437
-175.602
-178.118
-182.435
-177.102
-158.965
-134.558
-108.04
-83.341
-62.593
-44.405
-29.299
-18.905
-13.918
-14.909
-21.336
-31.462
-43.61
-56.003
-66.948
-75.311
-80.55
-82.661
-82.28
-80.447
-77.93
-75.375
-73.276
-71.794
-70.976
-70.7
-70.542
-69.959
-68.661
-66.551
-63.704
-60.325
-56.535
-52.424
-48.135
-43.827
-39.626
-35.58
-31.66
-27.797
-23.96
-20.16
-16.432
-12.815
-9.295
-5.835
-2.386
1.09
4.613
8.2
11.88
15.682
19.625
23.704
27.896
32.179
36.542
40.985
45.51
50.119
54.801
59.542
64.329
69.148
73.984
78.82
83.634
88.403
93.105
97.724
102.243
106.645
110.908
115.012
118.934
122.653
126.148
129.399
132.384
135.082
137.477
139.551
141.292
142.685
143.718
144.382
144.669
144.572
144.087
143.209
141.939
140.277
138.226
135.792
132.982
129.806
126.275
122.403
118.207
113.705
108.916
103.862
98.566
93.053
87.348
81.478
75.471
69.352
63.151
56.894
50.61
44.324
38.064
31.853
25.717
19.678
13.758
7.978
2.357
-3.089
-8.342
-13.39
-18.218
-22.816
-27.176
-31.29
-35.153
-38.762
-42.115
-45.213
-48.058
-50.654
-53.007
-55.124
-57.014
-58.686
-60.152
-61.423
-62.513
-63.436
-64.203
-64.83
-65.331
-65.72
-66.011
-66.218
-66.353
-66.431
-66.463
-66.461
-66.438
-66.404
-66.369
-66.344
-66.337
-66.356
-66.41
-66.504
-66.644
-66.835
-67.081
-67.385
-67.749
-68.174
-68.66
-69.207
-69.814
-70.478
-71.197
-71.968
-72.787
-73.65
-74.551
-75.488
-76.454
-77.443
-78.452
-79.473
-80.501
-81.532
-82.56
-83.578
-84.582
-85.563
-86.517
-87.438
-88.318
-89.151
-89.929
-90.645
-91.294
-91.869
-92.363
-92.769
-93.082
-93.295
-93.403
-93.403
-93.289
-93.056
-92.701
-92.224
-91.621
-90.893
-90.038
-89.058
-87.954
-86.73
-85.392
-83.944
-82.393
-80.745
-79.009
-77.194
-75.308
-73.36
-71.357
-69.306
-67.219
-65.107
-62.984
-60.863
-58.758
-56.682
-54.651
-52.683
-50.787
-48.968
-47.235
-45.593
-44.056
-42.65
-41.39
-40.285
-39.349
-38.59
-38.012
-37.614
-37.373
-37.25
-37.213
-37.23
-37.281
-37.368
-37.467
-37.553
-37.598
-37.55
-37.384
-37.094
-36.648
-36.016
-35.214
-34.29
-33.345
-32.547
-32.002
-31.771
-31.932
-32.554
-33.732
-35.576
-38.149
-41.47
-45.606
-50.73
-56.934
-64.154
-72.106
-80.195
-87.783
-94.351
-99.264
-101.655
-101.053
-97.561
-91.647
-84.579
-77.92
-72.817
-70.829
-74.184
-82.268
-91.61
-99.556
-102.009
-99.844
-100.728
-104.588
-106.544
-94.875
-48.22
42.114
173.9
337.258
509.752
675.008
817.712
920.531
973.62
964.297
889.423
757.185
575.789
364.291
142.062
-72.405
-252.75
-381.682
-452.917
-470.178
-452.773
-420.387
-383.127
-345.363
-303.781
-253.595
-197.818
-141.911
-91.859
-54.461
-31.635
-21.798
-23.237
-33.012
-47.661
-64.948
-82.228
-96.151
-105.114
-108.832
-107.421
-101.874
-93.623
-83.837
-74.41
-67.798
-65.128
-66.29
-70.526
-76.816
-84.265
-92.011
-98.634
-102.323
-102.157
-98.447
-92.304
-84.756
-76.426
-67.794
-59.562
-52.785
-48.12
-45.355
-43.664
-42.313
-40.941
-39.434
-37.697
-35.384
-32.198
-28.193
-23.712
-19.089
-14.487
-9.894
-5.216
-0.456
4.329
9.133
14.004
19.018
24.222
29.612
35.144
40.783
46.514
52.337
58.258
64.272
70.361
76.506
82.689
88.896
95.115
101.332
107.53
113.693
119.8
125.833
131.777
137.613
143.319
148.869
154.234
159.387
164.303
168.959
173.335
177.409
181.162
184.575
187.632
190.317
192.617
194.52
196.014
197.092
197.747
197.976
197.778
197.154
196.109
194.646
192.774
190.503
187.845
184.814
181.427
177.703
173.663
169.328
164.724
159.876
154.811
149.558
144.144
138.6
132.953
127.235
121.473
115.698
109.937
104.217
98.566
93.009
87.57
82.272
77.135
72.18
67.424
62.884
58.574
54.506
50.691
47.14
43.858
40.852
38.124
35.676
33.508
31.617
29.998
28.647
27.556
26.717
26.12
25.754
25.608
25.669
25.924
26.358
26.958
27.708
28.593
29.599
30.711
31.913
33.192
34.535
35.927
37.355
38.809
40.274
41.741
43.198
44.635
46.043
47.411
48.733
50.001
51.208
52.347
53.415
54.405
55.314
56.139
56.876
57.522
58.076
58.537
58.902
59.171
59.345
59.423
59.405
59.292
59.085
58.783
58.388
57.9
57.319
56.646
55.882
55.028
54.085
53.056
51.943
50.747
49.471
48.119
46.692
45.194
43.63
42.003
40.317
38.578
36.792
34.964
33.101
31.211
29.299
27.372
25.439
23.507
21.584
19.677
17.793
15.941
14.129
12.366
10.659
9.017
7.447
5.956
4.552
3.242
2.026
0.909
-0.108
-1.023
-1.838
-2.552
-3.166
-3.684
-4.103
-4.427
-4.655
-4.792
-4.845
-4.821
-4.731
-4.582
-4.385
-4.149
-3.887
-3.607
-3.312
-3.005
-2.694
-2.39
-2.115
-1.892
-1.734
-1.652
-1.661
-1.765
-1.964
-2.244
-2.572
-2.915
-3.246
-3.54
-3.789
-3.978
-4.082
-4.069
-3.898
-3.531
-2.956
-2.162
-1.128
0.134
1.567
3.084
4.539
5.801
6.786
7.395
7.506
6.997
5.723
3.549
0.405
-3.821
-9.311
-16.098
-24.087
-32.982
-42.159
-50.991
-58.99
-65.525
-69.833
-71.492
-70.463
-67.232
-63.118
-59.391
-56.833
-56.355
-59.02
-65.215
-74.328
-84.701
-93.21
-96.2
-90.474
-72.693
-38.776
13.274
81.636
163.475
254.36
352.122
461.247
583.351
711.841
831.145
915.04
940.219
898.11
794.924
648.398
476.976
294.698
111.388
-61.497
-205.895
-308.742
-364.622
-379.491
-372.326
-356.218
-336.159
-311.773
-276.655
-230.229
-177.403
-123.328
-73.956
-32.758
-1.179
20.037
31.702
35.247
32.336
24.715
13.685
1.033
-10.661
-19.706
-25.412
-27.725
-27.366
-25.026
-21.071
-16.401
-12.444
-10.013
-9.445
-10.737
-13.346
-16.86
-21.083
-25.561
-29.686
-33.066
-35.432
-36.656
-36.858
-36.102
-34.416
-31.923
-28.771
-25.13
-21.162
-16.985
-12.677
-8.295
-3.886
0.517
4.886
9.213
13.477
17.65
21.717
25.662
29.478
33.179
36.781
40.324
43.852
47.405
51.018
54.712
58.495
62.371
66.338
70.382
74.492
78.66
82.874
87.127
91.414
95.723
100.041
104.35
108.631
112.862
117.026
121.101
125.07
128.915
132.619
136.169
139.552
142.753
145.758
148.548
151.108
153.421
155.471
157.242
158.719
159.887
160.736
161.254
161.434
161.267
160.748
159.874
158.641
157.051
155.105
152.807
150.162
147.177
143.862
140.227
136.286
132.052
127.541
122.771
117.759
112.525
107.091
101.477
95.705
89.798
83.778
77.669
71.495
65.279
59.045
52.816
46.616
40.466
34.389
28.404
22.532
16.79
11.196
5.763
0.506
-4.562
-9.432
-14.093
-18.54
-22.765
-26.764
-30.536
-34.078
-37.391
-40.476
-43.335
-45.974
-48.396
-50.609
-52.617
-54.43
-56.055
-57.5
-58.776
-59.892
-60.857
-61.682
-62.377
-62.953
-63.421
-63.79
-64.071
-64.274
-64.409
-64.483
-64.508
-64.49
-64.437
-64.358
-64.259
-64.146
-64.027
-63.906
-63.789
-63.68
-63.584
-63.505
-63.447
-63.412
-63.404
-63.426
-63.48
-63.569
-63.695
-63.862
-64.072
-64.326
-64.628
-64.981
-65.386
-65.847
-66.364
-66.942
-67.583
-68.289
-69.063
-69.907
-70.823
-71.812
-72.877
-74.019
-75.238
-76.535
-77.909
-79.359
-80.884
-82.482
-84.152
-85.888
-87.689
-89.55
-91.466
-93.433
-95.444
-97.493
-99.572
-101.675
-103.792
-105.917
-108.039
-110.148
-112.236
-114.292
-116.306
-118.269
-120.168
-121.994
-123.736
-125.385
-126.932
-128.369
-129.687
-130.879
-131.941
-132.868
-133.658
-134.309
-134.82
-135.192
-135.43
-135.539
-135.527
-135.402
-135.172
-134.847
-134.441
-133.965
-133.429
-132.845
-132.224
-131.58
-130.929
-130.287
-129.672
-129.099
-128.586
-128.15
-127.81
-127.577
-127.458
-127.463
-127.598
-127.878
-128.327
-128.957
-129.778
-130.8
-132.028
-133.458
-135.083
-136.879
-138.803
-140.821
-142.9
-145.018
-147.172
-149.338
-151.493
-153.606
-155.63
-157.537
-159.313
-160.928
-162.354
-163.599
-164.699
-165.734
-166.832
-168.074
-169.502
-171.163
-173.096
-175.373
-178.09
-181.326
-185.127
-189.549
-194.721
-200.697
-207.403
-214.541
-221.481
-227.529
-232.121
-234.711
-234.72
-231.908
-226.436
-218.992
-211.21
-204.794
-200.948
-200.833
-205.358
-214.534
-227.542
-242.413
-255.294
-262.056
-259.34
-243.59
-211.583
-161.425
-92.446
-7.449
86.527
182.47
274.802
361.919
444.739
519.048
576.007
601.362
580.202
508.671
390.413
234.959
59.63
-119.73
-285.045
-414.26
-496.354
-530.125
-525.177
-502.034
-473.877
-445.534
-416.208
-380.153
-337.453
-292.864
-251.637
-219.517
-198.974
-189.365
-189.344
-196.224
-206.884
-218.924
-230.074
-238.664
-243.634
-244.34
-240.766
-233.631
-224.17
-213.71
-203.577
-194.62
-187.305
-181.917
-178.412
-176.534
-175.876
-175.843
-175.781
-175.305
-174.233
-172.48
-170.104
-167.136
-163.585
-159.547
-155.142
-150.447
-145.512
-140.352
-134.955
-129.354
-123.612
-117.802
-112.004
-106.267
-100.612
-95.056
-89.607
-84.272
-79.057
-73.951
-68.933
-63.992
-59.123
-54.326
-49.601
-44.941
-40.329
-35.751
-31.189
-26.635
-22.083
-17.531
-12.976
-8.422
-3.87
0.673
5.197
9.695
14.162
18.592
22.981
27.318
31.596
35.804
39.932
43.967
47.897
51.708
55.384
58.912
62.277
65.465
68.462
71.253
73.826
76.166
78.262
80.101
81.674
82.968
83.976
84.688
85.098
85.2
84.988
84.46
83.614
82.45
80.969
79.174
77.07
74.663
71.96
68.969
65.703
62.171
58.387
54.367
50.124
45.678
41.046
36.249
31.305
26.235
21.062
15.807
10.49
5.136
-0.236
-5.603
-10.945
-16.239
-21.466
-26.606
-31.64
-36.549
-41.315
-45.923
-50.357
-54.603
-58.648
-62.481
-66.091
-69.468
-72.606
-75.496
-78.135
-80.517
-82.64
-84.502
-86.103
-87.444
-88.526
-89.354
-89.932
-90.266
-90.363
-90.23
-89.875
-89.309
-88.541
-87.581
-86.442
-85.133
-83.669
-82.061
-80.322
-78.465
-76.502
-74.448
-72.314
-70.112
-67.856
-65.557
-63.227
-60.876
-58.515
-56.156
-53.807
-51.479
-49.182
-46.922
-44.71
-42.552
-40.455
-38.425
-36.467
-34.586
-32.787
-31.071
-29.443
-27.903
-26.453
-25.093
-23.824
-22.645
-21.554
-20.548
-19.626
-18.784
-18.019
-17.326
-16.703
-16.144
-15.645
-15.203
-14.814
-14.472
-14.173
-13.913
-13.686
-13.488
-13.314
-13.157
-13.013
-12.876
-12.74
-12.602
-12.455
-12.295
-12.118
-11.918
-11.692
-11.436
-11.146
-10.818
-10.449
-10.037
-9.58
-9.076
-8.524
-7.923
-7.272
-6.573
-5.826
-5.032
-4.191
-3.305
-2.373
-1.398
-0.383
0.672
1.763
2.888
4.041
5.217
6.408
7.607
8.806
9.998
11.173
12.323
13.44
14.521
15.561
16.554
17.496
18.377
19.192
19.935
20.598
21.175
21.657
22.04
22.324
22.515
22.617
22.633
22.559
22.385
22.105
21.718
21.218
20.602
19.874
19.048
18.155
17.241
16.347
15.51
14.756
14.104
13.585
13.223
13.05
13.094
13.37
13.894
14.697
15.797
17.168
18.744
20.418
22.056
23.555
24.845
25.832
26.395
26.426
25.833
24.532
22.509
19.696
15.906
11.101
5.433
-0.788
-6.979
-12.504
-16.908
-19.624
-19.956
-17.702
-13.101
-6.75
0.148
6.118
9.908
10.499
6.817
0.204
-5.713
-9.369
-9.205
-5.366
-1.903
5.046
25.154
66.726
139.743
241.881
356.855
468.224
560.883
628.092
673.949
703.784
716.842
707.386
667.232
588.604
471.598
322.307
151.969
-22.435
-180.943
-301.925
-373.357
-395.412
-379.717
-347.918
-314.113
-283.249
-254.653
-221.412
-181.755
-138.618
-95.392
-57.097
-26.667
-4.737
8.979
15.862
17.388
14.622
8.488
0.191
-8.421
-15.545
-20.281
-22.441
-22.374
-20.629
-17.507
-13.555
-9.844
-7.213
-6.078
-6.527
-8.204
-10.709
-13.827
-17.214
-20.351
-22.868
-24.5
-25.088
-24.7
-23.407
-21.252
-18.354
-14.863
-10.937
-6.722
-2.332
2.163
6.71
11.269
15.818
20.334
24.818
29.254
33.612
37.883
42.05
46.111
50.083
53.988
57.864
61.757
65.706
69.745
73.895
78.165
82.557
87.067
91.682
96.386
101.171
106.024
110.935
115.898
120.896
125.914
130.93
135.921
140.862
145.729
150.498
155.145
159.649
163.988
168.146
172.105
175.849
179.358
182.616
185.602
188.3
190.693
192.765
194.501
195.887
196.913
197.57
197.852
197.753
197.271
196.404
195.155
193.526
191.525
189.159
186.438
183.374
179.982
176.277
172.279
168.007
163.483
158.731
153.774
148.639
