Name,Aleksandre Beruashvili
Date of Birth,"Dec 20, 1998"
Recorded Date,2024-05-27 19:26:51 +0400
Classification,Sinus Rhythm
Symptoms,
Software Version,1.90
Device,"Watch7,2"
Sample Rate,512 hertz


Lead,Lead I
Unit,µV

2.215
-85.489
-141.986
-168.491
-174.485
-169.609
-160.082
-151.395
-143.24
-135.117
-128.055
-121.764
-117.626
-116.143
-116.289
-117.904
-120.533
-123.545
-126.676
-129.309
-130.818
-131.275
-130.65
-128.493
-124.395
-117.768
-108.396
-96.695
-83.08
-67.832
-51.398
-34.349
-17.404
-1.545
12.642
25.008
35.442
44.036
50.976
56.431
60.804
64.626
68.235
71.842
75.589
79.497
83.63
88.08
92.842
97.906
103.292
109.032
115.213
121.886
129.016
136.538
144.353
152.345
160.419
168.465
176.348
183.959
191.194
197.963
204.203
209.836
214.777
218.94
222.23
224.58
225.958
226.344
225.734
224.137
221.571
218.068
213.681
208.456
202.439
195.675
188.208
180.09
171.384
162.156
152.474
142.407
132.021
121.383
110.559
99.614
88.609
77.601
66.644
55.791
45.095
34.61
24.383
14.463
4.889
-4.297
-13.059
-21.367
-29.192
-36.514
-43.313
-49.577
-55.293
-60.456
-65.063
-69.115
-72.616
-75.573
-77.998
-79.904
-81.309
-82.231
-82.692
-82.717
-82.331
-81.562
-80.436
-78.985
-77.238
-75.224
-72.975
-70.518
-67.885
-65.103
-62.2
-59.203
-56.137
-53.027
-49.897
-46.77
-43.666
-40.604
-37.602
-34.677
-31.844
-29.117
-26.507
-24.027
-21.685
-19.49
-17.448
-15.565
-13.845
-12.29
-10.9
-9.675
-8.614
-7.713
-6.968
-6.373
-5.924
-5.613
-5.433
-5.378
-5.438
-5.607
-5.876
-6.238
-6.685
-7.208
-7.802
-8.458
-9.17
-9.931
-10.736
-11.576
-12.447
-13.341
-14.253
-15.177
-16.107
-17.037
-17.962
-18.876
-19.775
-20.654
-21.511
-22.341
-23.141
-23.908
-24.642
-25.339
-25.998
-26.617
-27.193
-27.726
-28.215
-28.658
-29.054
-29.4
-29.695
-29.936
-30.12
-30.245
-30.307
-30.3
-30.221
-30.066
-29.831
-29.514
-29.111
-28.619
-28.035
-27.358
-26.586
-25.719
-24.754
-23.691
-22.528
-21.268
-19.911
-18.461
-16.921
-15.296
-13.594
-11.824
-9.994
-8.114
-6.195
-4.248
-2.288
-0.33
1.614
3.528
5.395
7.2
8.922
10.544
12.051
13.431
14.67
15.756
16.671
17.404
17.955
18.322
18.505
18.5
18.291
17.87
17.241
16.405
15.363
14.118
12.665
11.017
9.209
7.276
5.261
3.191
1.07
-1.099
-3.313
-5.551
-7.77
-9.936
-12.033
-14.04
-15.937
-17.679
-19.213
-20.612
-22.059
-23.818
-26.253
-29.636
-34.132
-39.979
-47.333
-56.085
-65.966
-76.334
-86.222
-94.878
-101.632
-105.749
-106.839
-104.862
-100.048
-93.373
-86.231
-79.926
-76.011
-76.017
-81.1
-92.206
-109.701
-133.201
-160.973
-189.387
-214.214
-231.151
-238.656
-239.198
-234.479
-223.633
-199.964
-150.821
-65.073
62.157
226.731
416.884
615.904
807.424
976.892
1107.745
1187.433
1204.278
1148.886
1022.878
831.118
588.306
319.869
52.218
-183.143
-363.213
-481.79
-543.467
-565.478
-564.076
-544.877
-509.9
-458.272
-394.271
-331.796
-282.184
-251.347
-236.912
-227.685
-216.454
-201.292
-184.461
-172.471
-167.531
-168.306
-172.819
-177.367
-180.177
-181.201
-179.969
-176.777
-172.276
-166.694
-160.472
-154.268
-148.414
-143.334
-139.658
-137.504
-136.672
-136.893
-137.695
-138.696
-139.704
-140.455
-140.625
-140.06
-138.702
-136.585
-133.866
-130.637
-126.941
-122.845
-118.418
-113.747
-108.927
-104.041
-99.154
-94.309
-89.532
-84.841
-80.246
-75.742
-71.315
-66.928
-62.535
-58.108
-53.624
-49.064
-44.417
-39.657
-34.757
-29.693
-24.443
-18.992
-13.33
-7.447
-1.336
5.003
11.562
18.329
25.288
32.422
39.721
47.167
54.743
62.431
70.206
78.045
85.923
93.811
101.676
109.484
117.199
124.785
132.205
139.424
146.403
153.106
159.497
165.541
171.203
176.45
181.25
185.572
189.388
192.672
195.4
197.551
199.107
200.052
200.374
200.064
199.116
197.528
195.301
192.437
188.944
184.833
180.116
174.812
168.937
162.517
155.577
148.144
140.25
131.928
123.213
114.14
104.748
95.074
85.158
75.04
64.76
54.357
43.871
33.341
22.807
12.305
1.871
-8.459
-18.653
-28.679
-38.507
-48.109
-57.461
-66.537
-75.317
-83.782
-91.913
-99.696
-107.119
-114.17
-120.841
-127.127
-133.023
-138.527
-143.639
-148.36
-152.693
-156.643
-160.215
-163.417
-166.256
-168.743
-170.886
-172.697
-174.188
-175.368
-176.252
-176.851
-177.176
-177.241
-177.058
-176.638
-175.993
-175.135
-174.075
-172.825
-171.395
-169.795
-168.037
-166.13
-164.084
-161.907
-159.61
-157.201
-154.687
-152.078
-149.382
-146.605
-143.757
-140.846
-137.877
-134.861
-131.803
-128.713
-125.597
-122.463
-119.32
-116.175
-113.037
-109.914
-106.816
-103.751
-100.728
-97.757
-94.848
-92.009
-89.251
-86.582
-84.011
-81.548
-79.201
-76.978
-74.886
-72.935
-71.13
-69.477
-67.983
-66.651
-65.486
-64.49
-63.665
-63.013
-62.533
-62.223
-62.084
-62.111
-62.302
-62.652
-63.155
-63.804
-64.592
-65.509
-66.546
-67.689
-68.927
-70.247
-71.635
-73.077
-74.557
-76.058
-77.566
-79.062
-80.531
-81.955
-83.316
-84.597
-85.779
-86.848
-87.789
-88.585
-89.223
-89.689
-89.972
-90.062
-89.949
-89.626
-89.083
-88.315
-87.32
-86.095
-84.642
-82.96
-81.053
-78.926
-76.592
-74.062
-71.352
-68.478
-65.457
-62.312
-59.065
-55.741
-52.358
-48.935
-45.491
-42.047
-38.626
-35.252
-31.945
-28.73
-25.625
-22.649
-19.821
-17.15
-14.631
-12.261
-10.036
-7.96
-6.055
-4.339
-2.819
-1.513
-0.429
0.433
1.074
1.529
1.854
2.089
2.268
2.395
2.451
2.459
2.449
2.452
2.542
2.748
3.121
3.801
4.832
6.126
7.497
8.59
9.088
8.893
7.854
5.721
2.516
-1.552
-5.894
-9.543
-11.999
-13.197
-13.016
-11.289
-7.901
-2.98
2.415
6.96
10.382
12.671
14.007
13.511
8.541
-1.293
-14.284
-26.916
-33.931
-35.477
-35.183
-36.496
-44.097
-57.029
-70.522
-80.64
-80.25
-61.661
-17.883
60.095
177.888
333.909
522.698
730.927
939.252
1128.944
1276.96
1362.74
1373.417
1300.779
1149.33
934.233
675.855
401.007
137.65
-90.842
-267.582
-384.744
-447.157
-465.734
-450.693
-412.777
-358.198
-292.435
-226.925
-171.914
-134.262
-115.5
-107.56
-100.508
-89.4
-73.508
-57.333
-46.473
-41.78
-41.992
-44.758
-46.893
-47.404
-46.196
-42.79
-37.579
-31.132
-23.626
-15.55
-7.391
0.653
8.095
14.289
19.05
22.475
24.811
26.519
27.932
29.225
30.668
32.576
35.129
38.411
42.379
46.881
51.812
57.112
62.716
68.548
74.522
80.545
86.531
92.409
98.132
103.67
109.002
114.115
119.01
123.695
128.209
132.601
136.907
141.155
145.37
149.568
153.78
158.044
162.39
166.85
171.448
176.202
181.134
186.261
191.594
197.135
202.881
208.825
214.959
221.28
227.779
234.446
241.268
248.229
255.309
262.489
269.744
277.046
284.362
291.659
298.901
306.052
313.075
319.93
326.578
332.98
339.096
344.887
350.313
355.335
359.916
364.02
367.613
370.663
373.139
375.014
376.262
376.863
376.796
376.048
374.604
372.458
369.602
366.037
361.763
356.787
351.118
344.768
337.756
330.101
321.827
312.962
303.536
293.581
283.134
272.233
260.916
249.225
237.203
224.893
212.34
199.59
186.689
173.68
160.61
147.524
134.464
121.475
108.597
95.872
83.337
71.029
58.985
47.236
35.813
24.746
14.059
3.777
-6.079
-15.491
-24.443
-32.922
-40.918
-48.423
-55.432
-61.942
-67.954
-73.468
-78.491
-83.028
-87.087
-90.681
-93.82
-96.519
-98.792
-100.657
-102.131
-103.233
-103.981
-104.396
-104.5
-104.313
-103.857
-103.154
-102.226
-101.096
-99.787
-98.319
-96.715
-94.997
-93.186
-91.301
-89.363
-87.392
-85.406
-83.422
-81.458
-79.529
-77.651
-75.838
-74.102
-72.455
-70.908
-69.471
-68.152
-66.96
-65.9
-64.98
-64.204
-63.577
-63.102
-62.782
-62.618
-62.614
-62.767
-63.08
-63.551
-64.177
-64.959
-65.892
-66.975
-68.203
-69.573
-71.079
-72.716
-74.478
-76.36
-78.354
-80.453
-82.651
-84.939
-87.31
-89.757
-92.271
-94.845
-97.471
-100.14
-102.844
-105.575
-108.323
-111.078
-113.832
-116.576
-119.299
-121.992
-124.646
-127.249
-129.792
-132.265
-134.656
-136.956
-139.151
-141.232
-143.188
-145.008
-146.683
-148.203
-149.559
-150.744
-151.748
-152.567
-153.194
-153.623
-153.848
-153.866
-153.673
-153.269
-152.653
-151.825
-150.789
-149.551
-148.119
-146.504
-144.715
-142.765
-140.667
-138.438
-136.096
-133.661
-131.148
-128.577
-125.969
-123.346
-120.734
-118.157
-115.631
-113.178
-110.814
-108.56
-106.44
-104.47
-102.65
-100.99
-99.495
-98.176
-97.062
-96.164
-95.48
-95.017
-94.776
-94.758
-94.97
-95.396
-95.996
-96.735
-97.569
-98.475
-99.461
-100.513
-101.628
-102.786
-103.929
-105.041
-106.114
-107.108
-108.014
-108.81
-109.451
-110.039
-110.784
-111.926
-113.832
-116.792
-120.949
-126.553
-133.746
-142.375
-152.184
-162.519
-172.362
-180.916
-187.414
-190.975
-191.168
-187.926
-181.371
-172.488
-162.76
-153.657
-147.069
-144.796
-148.181
-158.304
-175.628
-199.965
-229.181
-258.476
-282.842
-297.304
-300.405
-297.091
-289.981
-277.349
-252.109
-196.507
-96.13
52.404
244.849
461.207
675.594
867.315
1015.286
1106.369
1135.036
1095.952
989.713
820.755
596.534
333.591
57.115
-203.107
-418.493
-571.102
-660.168
-697.942
-700.345
-679.415
-640.426
-585.035
-519.528
-456.461
-406.391
-375.144
-359.296
-346.748
-330.264
-308.169
-283.409
-264.017
-253.011
-248.845
-249.429
-250.984
-251.57
-251.374
-250.067
-247.325
-243.35
-238.348
-232.672
-226.978
-221.674
-216.955
-213.233
-210.943
-210.14
-210.618
-212.03
-213.944
-216.042
-218.125
-219.924
-221.076
-221.347
-220.619
-218.817
-215.969
-212.136
-207.364
-201.785
-195.632
-189.086
-182.314
-175.482
-168.662
-161.908
-155.273
-148.754
-142.343
-136.049
-129.87
-123.819
-117.925
-112.184
-106.574
-101.059
-95.566
-90.03
-84.398
-78.602
-72.599
-66.361
-59.867
-53.118
-46.13
-38.91
-31.466
-23.804
-15.925
-7.834
0.456
8.93
17.565
26.338
35.221
44.184
53.19
62.209
71.207
80.153
89.02
97.774
106.384
114.813
123.025
130.983
138.649
145.983
152.946
159.5
165.609
171.238
176.357
180.936
184.946
188.365
191.169
193.34
194.863
195.725
195.916
195.43
194.265
192.42
189.899
186.71
182.863
178.372
173.255
167.531
161.224
154.36
146.967
139.077
130.723
121.94
112.764
103.233
93.389
83.272
72.925
62.391
51.712
40.931
30.091
19.233
8.398
-2.375
-13.046
-23.58
-33.941
-44.095
-54.011
-63.658
-73.009
-82.039
-90.724
-99.043
-106.977
-114.51
-121.628
-128.318
-134.572
-140.381
-145.741
-150.649
-155.103
-159.105
-162.658
-165.767
-168.439
-170.683
-172.509
-173.929
-174.958
-175.608
-175.896
-175.839
-175.454
-174.76
-173.777
-172.522
-171.017
-169.283
-167.339
-165.207
-162.906
-160.459
-157.885
-155.205
-152.438
-149.605
-146.723
-143.812
-140.89
-137.975
-135.082
-132.229
-129.432
-126.704
-124.06
-121.513
-119.075
-116.758
-114.573
-112.528
-110.631
-108.892
-107.315
-105.907
-104.673
-103.615
-102.736
-102.039
-101.523
-101.189
-101.034
-101.057
-101.254
-101.622
-102.156
-102.851
-103.7
-104.697
-105.835
-107.106
-108.502
-110.013
-111.63
-113.343
-115.141
-117.011
-118.943
-120.923
-122.939
-124.978
-127.028
-129.076
-131.108
-133.11
-135.071
-136.976
-138.814
-140.57
-142.231
-143.785
-145.221
-146.528
-147.696
-148.714
-149.572
-150.263
-150.781
-151.117
-151.268
-151.227
-150.988
-150.55
-149.911
-149.071
-148.031
-146.794
-145.365
-143.752
-141.968
-140.023
-137.931
-135.705
-133.36
-130.91
-128.376
-125.771
-123.115
-120.426
-117.721
-115.024
-112.359
-109.746
-107.206
-104.757
-102.412
-100.189
-98.104
-96.164
-94.378
-92.758
-91.316
-90.073
-89.046
-88.242
-87.666
-87.324
-87.205
-87.304
-87.597
-88.041
-88.604
-89.253
-89.957
-90.702
-91.451
-92.154
-92.764
-93.234
-93.542
-93.689
-93.641
-93.339
-92.77
-91.984
-91.112
-90.308
-89.627
-89.133
-88.969
-89.416
-90.864
-93.503
-97.283
-102.138
-108.092
-115.108
-123.015
-131.125
-138.34
-144.087
-147.973
-149.515
-148.552
-144.67
-138.717
-133.815
-131.409
-131.425
-132.024
-128.11
-121.086
-117.037
-120.288
-136.79
-162.695
-187.298
-205.432
-210.937
-201.783
-178.2
-132.748
-56.75
56.872
210.626
399.081
608.287
818.959
1010.545
1159.346
1247.305
1263.154
1201.567
1069.765
878.504
643.12
384.629
124.164
-113.433
-306.688
-442.256
-517.97
-542.331
-526.863
-486.491
-431.337
-369.31
-311.823
-263.034
-225.608
-199.044
-174.851
-150.219
-125.776
-103.489
-89.6
-85.77
-89.608
-98.421
-107.915
-115.371
-119.992
-120.909
-118.072
-112.033
-103.339
-92.86
-81.625
-70.456
-60.154
-51.561
-45.024
-40.45
-37.567
-35.853
-34.756
-33.902
-32.896
-31.329
-29.014
-25.885
-21.942
-17.318
-12.123
-6.411
-0.265
6.236
13.047
20.095
27.311
34.636
41.984
49.291
56.524
63.654
70.673
77.59
84.415
91.179
97.928
104.688
111.485
118.339
125.264
132.286
139.437
146.745
154.236
161.935
169.858
178.022
186.436
195.105
204.025
213.187
222.577
232.184
241.998
252.004
262.187
272.528
283.006
293.596
304.273
315.007
325.764
336.507
347.199
357.799
368.269
378.566
388.65
398.477
408.007
417.197
426.007
434.397
442.327
449.76
456.66
462.994
468.73
473.842
478.302
482.09
485.187
487.578
489.251
490.2
490.42
489.911
488.676
486.724
484.064
480.712
476.687
472.009
466.707
460.807
454.345
447.353
439.87
431.935
423.591
414.88
405.846
396.534
386.991
377.261
367.392
357.428
347.415
337.398
327.419
317.52
307.74
298.119
288.691
279.491
270.55
261.896
253.557
245.555
237.913
230.649
223.78
217.317
211.272
205.652
200.463
195.706
191.381
187.486
184.015
180.963
178.32
176.076
174.22
172.739
171.619
170.845
170.399
170.267
170.429
170.868
171.565
172.503
173.664
175.029
176.583
178.307
180.185
182.202
184.341
186.588
188.928
191.347
193.833
196.372
198.956
201.573
204.215
206.875
209.546
212.222
214.897
217.568
220.23
222.879
225.513
228.129
230.725
233.3
235.855
238.391
240.909
243.413
245.906
248.39
250.87
253.349
255.832
258.324
260.829
263.355
265.907
268.495
271.127
273.812
276.561
279.384
282.289
285.288
288.39
291.606
294.945
298.42
302.043
305.828
309.787
313.938
318.294
322.873
327.692
332.766
338.107
343.728
349.639
355.847
362.36
369.185
376.325
383.785
391.572
399.691
408.152
416.962
426.123
435.634
445.491
455.686
466.211
477.052
488.186
499.595
511.262
523.172
535.321
547.695
560.258
572.965
585.759
598.565
611.311
623.922
636.307
648.39
660.112
671.434
682.352
692.862
702.94
712.541
721.594
730.03
737.819
744.94
751.378
757.154
762.282
766.796
770.78
774.281
777.294
779.769
781.575
782.555
782.597
781.63
779.618
776.547
772.365
767.028
760.526
752.824
743.908
733.734
722.175
709.15
694.664
678.793
661.731
643.736
625.002
605.68
585.885
565.713
545.31
524.796
504.225
483.595
462.828
441.938
421.094
400.378
379.756
359.017
337.702
315.496
292.404
268.419
243.516
217.819
191.475
165.153
140.25
117.845
98.531
82.713
70.44
61.622
56.221
53.266
50.436
45.529
36.783
22.696
3.343
-19.85
-45.517
-70.753
-93.395
-114.604
-134.166
-150.898
-159.457
-146.927
-102.275
-17.488
109.207
269.143
453.099
648.539
839.354
1010.372
1140.073
1208.759
1203.645
1116.83
953.463
727.402
457.776
171.721
-103.091
-342.296
-526.114
-646.862
-707.751
-717.315
-691.359
-645.24
-590.997
-542.024
-503.254
-474.375
-453.294
-431.26
-404.853
-376.03
-347.779
-326.953
-316.596
-315.088
-319.861
-327.122
-334.509
-341.497
-347.686
-352.847
-356.631
-358.584
-358.875
-357.919
-356.116
-353.87
-351.483
-349.243
-347.556
-346.888
-347.341
-348.73
-350.801
-353.253
-355.886
-358.587
-361.167
-363.351
-365.004
-366.134
-366.814
-367.197
-367.388
-367.433
-367.407
-367.416
-367.56
-367.932
-368.606
-369.597
-370.912
-372.555
-374.522
-376.805
-379.387
-382.224
-385.266
-388.471
-391.803
-395.231
-398.726
-402.246
-405.747
-409.184
-412.517
-415.707
-418.724
-421.533
-424.107
-426.419
-428.449
-430.183
-431.613
-432.729
-433.521
-433.982
-434.107
-433.896
-433.353
-432.483
-431.295
-429.804
-428.028
-425.988
-423.711
-421.222
-418.553
-415.733
-412.797
-409.779
-406.716
-403.643
-400.6
-397.626
-394.759
-392.039
-389.506
-387.195
-385.146
-383.391
-381.966
-380.899
-380.22
-379.953
-380.12
-380.739
-381.827
-383.394
-385.449
-387.995
-391.032
-394.556
-398.56
-403.032
-407.956
-413.313
-419.081
-425.232
-431.739
-438.571
-445.694
-453.071
-460.665
-468.437
-476.346
-484.349
-492.405
-500.47
-508.502
-516.457
-524.293
-531.969
-539.446
-546.685
-553.65
-560.307
-566.623
-572.569
-578.119
-583.248
-587.937
-592.168
-595.925
-599.199
-601.981
-604.266
-606.052
-607.341
-608.137
-608.447
-608.28
-607.647
-606.565
-605.049
-603.118
-600.792
-598.095
-595.05
-591.681
-588.014
-584.077
-579.896
-575.499
-570.914
-566.167
-561.287
-556.3
-551.232
-546.108
-540.951
-535.784
-530.629
-525.503
-520.427
-515.414
-510.479
-505.636
-500.894
-496.263
-491.75
-487.361
-483.1
-478.97
-474.972
-471.105
-467.368
-463.758
-460.271
-456.902
-453.644
-450.492
-447.438
-444.473
-441.59
-438.78
-436.033
-433.34
-430.692
-428.078
-425.491
-422.92
-420.356
-417.791
-415.218
-412.628
-410.017
-407.378
-404.707
-401.998
-399.248
-396.455
-393.615
-390.728
-387.789
-384.799
-381.756
-378.66
-375.51
-372.308
-369.052
-365.745
-362.384
-358.972
-355.508
-351.992
-348.424
-344.803
-341.128
-337.399
-333.617
-329.782
-325.892
-321.947
-317.949
-313.895
-309.787
-305.623
-301.4
-297.118
-292.776
-288.373
-283.91
-279.386
-274.803
-270.165
-265.477
-260.744
-255.973
-251.169
-246.34
-241.496
-236.65
-231.81
-226.984
-222.182
-217.413
-212.688
-208.02
-203.417
-198.884
-194.429
-190.056
-185.78
-181.609
-177.542
-173.572
-169.691
-165.892
-162.183
-158.578
-155.085
-151.702
-148.435
-145.29
-142.277
-139.406
-136.663
-134.006
-131.39
-128.777
-126.152
-123.528
-120.918
-118.313
-115.689
-113.002
-110.211
-107.298
-104.248
-100.998
-97.479
-93.724
-89.86
-86.184
-83.116
-80.979
-79.991
-80.381
-82.276
-85.564
-89.973
-94.843
-99.159
-102.066
-102.81
-100.695
-95.435
-87.149
-76.262
-63.908
-51.699
-41.231
-34.341
-32.71
-37.505
-49.512
-68.75
-94.325
-123.926
-153.632
-179.2
-196.326
-203.092
-200.321
-187.442
-162.853
-121.485
-55.613
38.892
162.734
311.871
479.008
655.123
828.504
984.502
1103.442
1167.723
1164.702
1089.386
949.241
755.471
524.191
275.954
31.704
-183.765
-350.759
-458.721
-508.733
-512.74
-483.438
-434.749
-375.811
-313.443
-258.448
-215.231
-185.851
-168.718
-154.6
-139.926
-124.811
-110.602
-102.816
-102.692
-107.821
-115.941
-123.31
-127.566
-128.244
-125.17
-118.874
-110.22
-99.914
-88.698
-77.411
-66.872
-57.854
-50.777
-45.621
-42.14
-39.927
-38.525
-37.514
-36.471
-34.967
-32.764
-29.792
-26.043
-21.591
-16.529
-10.907
-4.806
1.678
8.489
15.581
22.899
30.397
38.001
45.619
53.194
60.689
68.079
75.365
82.546
89.63
96.647
103.633
110.614
117.615
124.652
131.74
138.905
146.174
153.573
161.124
168.847
176.755
184.86
193.168
201.677
210.382
219.271
228.331
237.548
246.91
256.401
266.004
275.698
285.461
295.27
305.097
314.914
324.687
334.382
343.962
353.391
362.632
371.646
380.393
388.835
396.932
404.645
411.938
418.773
425.113
430.924
436.176
440.837
444.881
448.284
451.025
453.085
454.452
455.113
455.065
454.302
452.825
450.641
447.755
444.182
439.936
435.037
429.506
423.371
416.661
409.409
401.65
393.423
384.767
375.726
366.343
356.665
346.739
336.611
326.331
315.946
305.506
295.057
284.647
274.322
264.127
254.103
244.292
234.731
225.456
216.499
207.892
199.659
191.825
184.411
177.433
170.906
164.84
159.244
154.12
149.471
145.295
141.585
138.335
135.532
133.164
131.215
129.665
128.494
127.68
127.198
127.021
127.122
127.473
128.042
128.801
129.717
130.76
131.898
133.101
134.338
135.579
136.797
137.964
139.054
140.042
140.904
141.619
142.167
142.528
142.685
142.624
142.331
141.795
141.005
139.953
138.635
137.044
135.18
133.039
130.624
127.937
124.981
121.761
118.284
114.557
110.592
106.398
101.986
97.371
92.564
87.58
82.434
77.142
71.718
66.177
60.536
54.809
49.014
43.165
37.279
31.372
25.459
19.558
13.683
7.851
2.077
-3.624
-9.239
-14.752
-20.149
-25.416
-30.541
-35.509
-40.309
-44.927
-49.352
-53.572
-57.578
-61.361
-64.913
-68.226
-71.292
-74.107
-76.666
-78.965
-81.002
-82.771
-84.272
-85.506
-86.473
-87.177
-87.624
-87.818
-87.77
-87.49
-86.991
-86.287
-85.395
-84.331
-83.114
-81.767
-80.31
-78.765
-77.152
-75.493
-73.811
-72.131
-70.476
-68.865
-67.321
-65.864
-64.515
-63.299
-62.231
-61.315
-60.556
-59.959
-59.532
-59.298
-59.273
-59.46
-59.865
-60.495
-61.355
-62.446
-63.757
-65.24
-66.845
-68.532
-70.274
-72.074
-73.942
-75.856
-77.777
-79.657
-81.443
-83.108
-84.644
-85.977
-87.025
-87.826
-88.51
-89.332
-90.655
-92.695
-95.572
-99.49
-104.594
-110.8
-117.877
-125.308
-132.341
-138.533
-143.563
-146.906
-148.242
-147.545
-144.986
-141.256
-137.309
-133.615
-130.728
-129.802
-131.715
-137.033
-146.22
-158.899
-174.354
-192.66
-212.211
-228.497
-237.469
-234.983
-219.591
-196.227
-167.975
-133.861
-89.198
-20.896
81.986
222.03
396.359
589.361
780.406
950.678
1078.405
1149.88
1156.743
1093.219
964.542
778.142
547.831
296.208
46.616
-174.249
-345.694
-458.989
-515.635
-527.024
-506.982
-468.35
-420.902
-372.708
-330.435
-296
-268.634
-243.23
-214.418
-182.317
-150.046
-123.399
-106.826
-100.178
-100.878
-105.525
-111.83
-118.544
-124.856
-130.021
-132.943
-133.216
-131.195
-127.284
-121.981
-115.935
-109.651
-103.813
-99.28
-96.341
-94.885
-94.654
-95.213
-96.213
-97.443
-98.594
-99.304
-99.386
-98.781
-97.54
-95.819
-93.718
-91.282
-88.577
-85.671
-82.64
-79.558
-76.489
-73.477
-70.548
-67.716
-64.991
-62.373
-59.852
-57.409
-55.004
-52.588
-50.127
-47.596
-44.973
-42.241
-39.37
-36.329
-33.09
-29.628
-25.923
-21.96
-17.723
-13.198
-8.383
-3.279
2.107
7.762
13.676
19.839
26.237
32.854
39.672
46.668
53.819
61.098
68.475
75.916
83.385
90.842
98.25
105.569
112.757
119.774
126.578
133.128
139.385
145.308
150.859
156
160.694
164.909
168.612
171.775
174.37
176.375
177.768
178.534
178.659
178.133
176.951
175.109
172.609
169.457
165.663
161.237
156.198
150.565
144.362
137.617
130.359
122.624
114.446
105.864
96.918
87.652
78.109
68.333
58.371
48.267
38.069
27.822
17.573
7.367
-2.753
-12.743
-22.561
-32.167
-41.525
-50.597
-59.351
-67.756
-75.783
-83.406
-90.603
-97.354
-103.642
-109.452
-114.773
-119.597
-123.919
-127.737
-131.05
-133.862
-136.179
-138.009
-139.363
-140.253
-140.695
-140.703
-140.298
-139.497
-138.322
-136.795
-134.938
-132.776
-130.332
-127.631
-124.697
-121.557
-118.234
-114.753
-111.138
-107.412
-103.598
-99.719
-95.794
-91.845
-87.89
-83.949
-80.037
-76.171
-72.366
-68.635
-64.99
-61.442
-58
-54.673
-51.469
-48.393
-45.451
-42.648
-39.988
-37.472
-35.104
-32.884
-30.813
-28.89
-27.115
-25.486
-24.001
-22.659
-21.457
-20.392
-19.462
-18.665
-17.997
-17.454
-17.034
-16.733
-16.547
-16.472
-16.504
-16.638
-16.872
-17.201
-17.621
-18.128
-18.718
-19.385
-20.126
-20.934
-21.804
-22.729
-23.701
-24.715
-25.762
-26.836
-27.928
-29.03
-30.134
-31.231
-32.311
-33.365
-34.382
-35.352
-36.262
-37.103
-37.861
-38.528
-39.093
-39.545
-39.875
-40.072
-40.128
-40.034
-39.783
-39.366
-38.775
-38.005
-37.052
-35.913
-34.588
-33.077
-31.386
-29.522
-27.494
-25.312
-22.985
-20.528
-17.955
-15.285
-12.535
-9.721
-6.863
-3.982
-1.098
1.761
4.574
7.322
9.986
12.548
14.992
17.293
19.439
21.425
23.246
24.897
26.369
27.636
28.687
29.522
30.137
30.533
30.713
30.673
30.431
30.027
29.501
28.9
28.255
27.566
26.841
26.084
25.313
24.579
23.917
23.351
22.919
22.633
22.529
22.656
22.932
23.169
23.099
22.323
20.543
17.599
13.257
7.399
0.176
-8.142
-16.855
-24.903
-31.467
-35.77
-36.978
-34.718
-28.956
-19.902
-8.666
3.139
14.085
22.407
26.222
24.202
15.349
-0.933
-23.313
-48.637
-73.361
-93.093
-105.39
-111.62
-113.234
-109.937
-96.44
-61.268
8.423
121.002
275.257
462.089
665.415
867.081
1052.262
1203.688
1306.919
1350.523
1323.887
1227.966
1068.966
858.227
616.204
363.249
123.642
-78.047
-227.735
-320.61
-363.621
-372.688
-361.128
-338.31
-310.024
-277.013
-241.663
-205.971
-168.705
-130.516
-91.252
-52.665
-20.383
2.558
15.057
18.082
15.322
9.159
0.977
-7.497
-14.929
-19.841
-21.17
-19.013
-13.922
-6.487
2.596
12.536
22.365
30.952
37.665
42.475
45.612
47.541
48.722
49.494
50.282
51.572
53.615
56.5
60.21
64.578
69.474
74.838
80.572
86.586
92.817
99.19
105.642
112.124
118.564
124.909
131.132
137.207
143.131
148.915
154.572
160.139
165.66
171.163
176.67
182.2
187.765
193.392
199.11
204.945
210.923
217.064
223.384
229.902
236.628
243.567
250.714
258.063
265.602
273.321
281.212
289.261
297.455
305.776
314.204
322.717
331.29
339.894
348.497
357.064
365.556
373.937
382.168
390.209
398.02
405.561
412.792
419.674
426.167
432.234
437.837
442.94
447.51
451.515
454.925
457.714
459.856
461.332
462.123
462.216
461.598
460.262
458.205
455.427
451.929
447.721
442.813
437.219
430.958
424.05
416.522
408.403
399.725
390.521
380.829
370.688
360.138
349.222
337.982
326.462
314.708
302.764
290.675
278.486
266.241
253.983
241.756
229.601
217.557
205.664
193.956
182.469
171.234
160.282
149.641
139.335
129.388
119.82
110.648
101.886
93.547
85.64
78.172
71.145
64.561
58.418
52.713
47.441
42.593
38.159
34.129
30.489
27.226
24.322
21.762
19.528
17.601
15.961
14.59
13.468
12.572
11.885
11.384
11.049
10.861
10.799
10.844
10.976
11.178
11.431
11.718
12.024
12.334
12.633
12.909
13.15
13.345
13.485
13.561
13.566
13.493
13.336
13.092
12.757
12.327
11.802
11.18
10.461
9.646
8.735
7.731
6.635
5.451
4.182
2.83
1.401
-0.103
-1.674
-3.31
-5.005
-6.754
-8.552
-10.394
-12.275
-14.191
-16.138
-18.112
-20.109
-22.127
-24.162
-26.211
-28.273
-30.345
-32.425
-34.513
-36.607
-38.707
-40.811
-42.92
-45.033
-47.151
-49.273
-51.398
-53.526
-55.657
-57.79
-59.924
-62.058
-64.19
-66.319
-68.445
-70.564
-72.676
-74.776
-76.862
-78.929
-80.974
-82.989
-84.97
-86.909
-88.8
-90.635
-92.407
-94.107
-95.728
-97.261
-98.696
-100.026
-101.242
-102.336
-103.3
-104.125
-104.806
-105.336
-105.711
-105.929
-105.988
-105.891
-105.639
-105.237
-104.692
-104.009
-103.197
-102.263
-101.216
-100.065
-98.822
-97.503
-96.125
-94.707
-93.269
-91.833
-90.421
-89.055
-87.754
-86.536
-85.415
-84.403
-83.513
-82.762
-82.172
-81.771
-81.576
-81.598
-81.837
-82.295
-82.97
-83.848
-84.904
-86.093
-87.38
-88.736
-90.15
-91.618
-93.123
-94.634
-96.102
-97.476
-98.736
-99.892
-100.963
-101.945
-102.837
-103.65
-104.45
-105.401
-106.626
-108.164
-110.09
-112.5
-115.585
-119.723
-125.258
-132.267
-140.783
-150.804
-162.019
-174.1
-186.489
-197.951
-207.232
-213.511
-216.087
-214.632
-209.581
-201.303
-190.523
-179.337
-170.027
-164.474
-164.723
-171.074
-181.695
-195.473
-210.448
-225.413
-242.254
-259.769
-274.39
-279.487
-261.578
-210.772
-122.763
2.601
154.671
322.775
499.576
674.664
840.797
985.674
1089.734
1135.808
1109.05
1005.949
835.311
613.991
365.371
110.673
-129.354
-337.782
-503.645
-618.422
-681.632
-696.735
-672.245
-622.311
-560.947
-504.351
-461.402
-432.369
-413.057
-392.716
-366.323
-335.948
-306.054
-284.574
-274.845
-274.76
-281.184
-290.053
-298.556
-305.683
-310.511
-312.167
-310.426
-305.629
-298.422
-289.579
-279.958
-270.266
-261.257
-253.822
-248.31
-244.597
-242.389
-241.174
-240.446
-239.873
-239.084
-237.671
-235.452
-232.369
-228.442
-223.82
-218.62
-212.906
-206.767
-200.289
-193.533
-186.577
-179.495
-172.352
-165.232
-158.195
-151.279
-144.512
-137.902
-131.442
-125.122
-118.909
-112.764
-106.661
-100.577
-94.494
-88.398
-82.262
-76.058
-69.76
-63.34
-56.776
-50.053
-43.152
-36.066
-28.791
-21.329
-13.688
-5.88
2.084
10.196
18.443
26.811
35.285
43.843
52.465
61.128
69.805
78.465
87.075
95.599
104.004
112.252
120.305
128.124
135.67
142.904
149.788
156.281
162.345
167.944
173.041
177.601
181.593
184.986
187.753
189.869
191.314
192.069
192.12
191.456
190.071
187.962
185.13
181.578
177.317
172.359
166.718
160.416
153.475
145.924
137.791
129.111
119.921
110.26
100.169
89.693
78.878
67.771
56.42
44.876
33.189
21.408
9.585
-2.231
-13.99
-25.644
-37.147
-48.453
-59.518
-70.304
-80.769
-90.881
-100.604
-109.91
-118.772
-127.166
-135.072
-142.472
-149.353
-155.703
-161.514
-166.782
-171.506
-175.686
-179.327
-182.435
-185.022
-187.099
-188.681
-189.784
-190.428
-190.633
-190.421
-189.816
-188.842
-187.526
-185.892
-183.969
-181.784
-179.363
-176.734
-173.923
-170.956
-167.86
-164.657
-161.373
-158.03
-154.649
-151.25
-147.853
-144.476
-141.134
-137.844
-134.619
-131.473
-128.417
-125.462
-122.615
-119.886
-117.282
-114.807
-112.467
-110.266
-108.207
-106.291
-104.522
-102.899
-101.422
-100.092
-98.907
-97.866
-96.968
-96.21
-95.59
-95.107
-94.758
-94.541
-94.454
-94.495
-94.662
-94.953
-95.365
-95.896
-96.545
-97.31
-98.187
-99.174
-100.27
-101.471
-102.775
-104.178
-105.676
-107.265
-108.94
-110.697
-112.53
-114.433
-116.399
-118.421
-120.493
-122.608
-124.756
-126.93
-129.121
-131.32
-133.517
-135.702
-137.864
-139.991
-142.072
-144.095
-146.048
-147.92
-149.698
-151.369
-152.922
-154.343
-155.622
-156.745
-157.701
-158.477
-159.064
-159.451
-159.631
-159.595
-159.337
-158.849
-158.129
-157.172
-155.977
-154.541
-152.864
-150.946
-148.79
-146.402
-143.785
-140.95
-137.903
-134.659
-131.232
-127.639
-123.896
-120.024
-116.043
-111.976
-107.849
-103.685
-99.506
-95.336
-91.197
-87.114
-83.113
-79.214
-75.437
-71.802
-68.327
-65.033
-61.942
-59.062
-56.395
-53.943
-51.707
-49.698
-47.937
-46.433
-45.19
-44.212
-43.504
-43.072
-42.918
-43.024
-43.339
-43.811
-44.393
-45.058
-45.81
-46.645
-47.536
-48.44
-49.296
-50.053
-50.683
-51.162
-51.423
-51.397
-51.118
-50.718
-50.475
-50.757
-51.83
-53.855
-57.019
-61.448
-67.046
-73.588
-80.557
-87.142
-92.704
-96.73
-98.669
-98.24
-95.503
-90.684
-84.463
-77.932
-72.127
-68.231
-67.483
-70.836
-79.024
-92.397
-110.968
-133.348
-155.962
-174.938
-186.522
-189.765
-189.097
-187.547
-182.858
-167.114
-124.226
-39.639
88.878
255.023
443.715
633.825
811.768
965.786
1081.648
1151.393
1164.848
1114.286
1004.087
839.837
632.784
401.099
162.378
-61.744
-250.302
-389.32
-474.377
-509.798
-504.726
-472.722
-423.427
-365.914
-312.008
-265.77
-229.728
-202.823
-176.65
-149.014
-121.31
-96.229
-80.239
-75.297
-79.192
-89.334
-101.757
-113.452
-123.066
-129.345
-131.795
-130.724
-126.63
-120.221
-112.349
-103.92
-95.898
-89.311
-84.722
-82.107
-81.2
-81.527
-82.587
-84.018
-85.411
-86.306
-86.462
-85.808
-84.353
-82.24
-79.588
-76.438
-72.864
-68.947
-64.728
-60.276
-55.644
-50.875
-46.035
-41.176
-36.319
-31.49
-26.69
-21.906
-17.125
-12.312
-7.424
-2.435
2.677
7.93
13.337
18.92
24.708
30.725
36.993
43.531
50.351
57.465
64.882
72.598
80.605
88.891
97.436
106.224
115.239
124.462
133.869
143.437
153.137
162.939
172.81
182.715
192.613
202.463
212.221
221.841
231.279
240.49
249.428
258.046
266.3
274.144
281.537
288.435
294.799
300.589
305.77
310.309
314.176
317.344
319.789
321.492
322.439
322.617
322.021
320.647
318.499
315.581
311.904
307.484
302.339
296.491
289.968
282.8
275.022
266.672
257.791
248.423
238.614
228.411
217.866
207.029
195.951
184.686
173.287
161.804
150.292
138.8
127.379
116.079
104.944
94.021
83.351
72.974
62.927
53.241
43.949
35.076
26.646
18.678
11.19
4.193
-2.303
-8.293
-13.774
-18.747
-23.218
-27.194
-30.685
-33.707
-36.274
-38.405
-40.122
-41.447
-42.405
-43.021
-43.322
-43.338
-43.097
-42.628
-41.961
-41.126
-40.154
-39.072
-37.91
-36.695
-35.454
-34.211
-32.991
-31.816
-30.707
-29.682
-28.759
-27.952
-27.276
-26.741
-26.357
-26.131
-26.069
-26.172
-26.444
-26.883
-27.486
-28.251
-29.171
-30.24
-31.45
-32.79
-34.25
-35.818
-37.483
-39.23
-41.045
-42.915
-44.825
-46.759
-48.704
-50.644
-52.566
-54.455
-56.3
-58.088
-59.808
-61.449
-63.003
-64.46
-65.813
-67.057
-68.188
-69.201
-70.095
-70.869
-71.524
-72.062
-72.487
-72.803
-73.015
-73.13
-73.154
-73.098
-72.968
-72.776
-72.531
-72.244
-71.927
-71.593
-71.252
-70.918
-70.602
-70.315
-70.068
-69.871
-69.733
-69.662
-69.664
-69.745
-69.91
-70.163
-70.506
-70.94
-71.463
-72.073
-72.765
-73.535
-74.375
-75.274
-76.222
-77.209
-78.222
-79.249
-80.274
-81.283
-82.26
-83.19
-84.057
-84.843
-85.53
-86.101
-86.539
-86.829
-86.955
-86.904
-86.664
-86.225
-85.582
-84.732
-83.669
-82.393
-80.905
-79.21
-77.316
-75.232
-72.964
-70.521
-67.917
-65.165
-62.286
-59.297
-56.215
-53.054
-49.836
-46.582
-43.32
-40.074
-36.851
-33.661
-30.517
-27.438
-24.459
-21.615
-18.922
-16.402
-14.075
-11.958
-10.075
-8.432
-7.001
-5.751
-4.64
-3.64
-2.758
-2
-1.369
-0.852
-0.396
0.054
0.531
1.074
1.693
2.397
3.218
4.072
4.767
5.052
4.536
2.882
0.006
-4.159
-9.636
-16.211
-23.756
-32
-40.159
-47.538
-53.791
-58.617
-62.055
-64.482
-65.804
-66.091
-66.211
-67.066
-69.531
-74.608
-82.743
-93.95
-108.942
-127.483
-147.353
-165.938
-179.887
-187.926
-192.381
-195.051
-195.465
-186.554
-155.895
-92.646
10.579
150.256
315.394
494.957
674.404
843.348
991.922
1103.688
1164.536
1160.312
1080.576
927.985
713.912
459.245
193.832
-52.993
-256.8
-403.378
-492.87
-534.755
-542.949
-529.236
-500.948
-463.727
-420.857
-376.884
-335.178
-294.813
-255.726
-217.367
-181.349
-153.164
-135.636
-129.418
-132.724
-141.033
-151.445
-162.061
-171.168
-177.847
-181.02
-180.11
-175.645
-168.478
-159.447
-149.511
-139.501
-130.248
-122.668
-117.145
-113.559
-111.591
-110.743
-110.529
-110.592
-110.546
-109.986
-108.729
-106.72
-103.989
-100.672
-96.871
-92.642
-88.065
-83.213
-78.135
-72.893
-67.54
-62.124
-56.712
-51.353
-46.069
-40.881
-35.786
-30.775
-25.83
-20.92
-16.003
-11.053
-6.046
-0.962
4.214
9.509
14.951
20.568
26.384
32.423
38.698
45.225
52.014
59.066
66.376
73.935
81.73
89.75
97.982
106.413
115.025
123.8
132.715
141.745
150.866
160.045
169.251
178.447
187.596
196.659
205.599
214.376
222.948
231.276
239.319
247.038
254.394
261.347
267.861
273.9
279.43
284.42
288.84
292.664
295.867
298.431
300.338
301.574
302.13
301.998
301.177
299.664
297.466
294.589
291.043
286.844
282.007
276.554
270.509
263.899
256.754
249.106
240.989
232.441
223.499
214.203
204.593
194.711
184.598
174.296
163.848
153.295
142.678
132.037
121.412
110.839
100.356
89.996
79.792
69.774
59.97
50.407
41.109
32.097
23.392
15.009
6.966
-0.726
-8.057
-15.017
-21.602
-27.806
-33.63
-39.073
-44.138
-48.829
-53.152
-57.114
-60.723
-63.99
-66.925
-69.541
-71.849
-73.862
-75.595
-77.06
-78.273
-79.246
-79.993
-80.529
-80.866
-81.018
-80.997
-80.817
-80.49
-80.028
-79.443
-78.746
-77.95
-77.065
-76.101
-75.07
-73.98
-72.841
-71.662
-70.452
-69.217
-67.966
-66.707
-65.445
-64.188
-62.943
-61.715
-60.511
-59.337
-58.199
-57.103
-56.055
-55.061
-54.127
-53.258
-52.461
-51.743
-51.108
-50.563
-50.114
-49.765
-49.522
-49.388
-49.368
-49.465
-49.681
-50.02
-50.482
-51.069
-51.783
-52.623
-53.589
-54.681
-55.898
-57.238
-58.7
-60.279
-61.972
-63.776
-65.686
-67.695
-69.798
-71.987
-74.255
-76.595
-78.997
-81.452
-83.949
-86.478
-89.027
-91.585
-94.14
-96.677
-99.186
-101.653
-104.065
-106.41
-108.678
-110.854
-112.927
-114.885
-116.717
-118.412
-119.957
-121.342
-122.556
-123.587
-124.427
-125.068
-125.501
-125.72
-125.716
-125.486
-125.023
-124.326
-123.391
-122.216
-120.8
-119.146
-117.255
-115.133
-112.788
-110.227
-107.461
-104.505
-101.372
-98.08
-94.645
-91.088
-87.428
-83.688
-79.893
-76.062
-72.221
-68.392
-64.598
-60.865
-57.216
-53.67
-50.248
-46.97
-43.855
-40.927
-38.198
-35.672
-33.352
-31.241
-29.347
-27.687
-26.27
-25.098
-24.171
-23.496
-23.075
-22.912
-22.995
-23.281
-23.724
-24.286
-24.942
-25.697
-26.564
-27.528
-28.555
-29.599
-30.617
-31.588
-32.507
-33.309
-33.894
-34.276
-34.582
-35.069
-36.12
-38.02
-40.895
-44.943
-50.403
-57.217
-65.133
-73.618
-81.702
-88.643
-94
-97.147
-97.51
-95.021
-89.87
-82.767
-75.168
-68.155
-62.66
-60.16
-61.919
-68.808
-81.514
-99.758
-122.695
-149.03
-175.293
-196.91
-209.571
-211.211
-205.203
-195.715
-182.176
-158.276
-109.402
-20.394
112.319
283.76
479.863
678.506
864.432
1023.368
1138.438
1201.394
1202.453
1135.389
1006.844
823.218
597.026
348.143
96.217
-134.428
-321.911
-453.086
-526
-548.656
-532.45
-492.398
-439.062
-381.582
-332.314
-294.95
-270.444
-255.48
-238.761
-216.526
-189.928
-162.318
-141.712
-130.954
-128.046
-130.689
-135.386
-139.767
-143.366
-145.522
-145.394
-142.829
-138.058
-131.416
-123.47
-114.911
-106.229
-98.068
-91.251
-86.018
-82.237
-79.643
-77.748
-76.169
-74.687
-72.989
-70.723
-67.724
-63.94
-59.424
-54.348
-48.814
-42.876
-36.609
-30.09
-23.405
-16.65
-9.907
-3.243
3.293
9.671
15.867
21.871
27.685
33.326
38.829
44.245
49.604
54.933
60.252
65.58
70.944
76.378
81.912
87.576
93.394
99.386
105.571
111.968
118.584
125.424
132.484
139.756
147.233
154.911
162.78
170.83
179.048
187.415
195.911
204.515
213.199
221.934
230.684
239.414
248.084
256.657
265.092
273.348
281.382
289.151
296.615
303.731
310.458
316.754
322.582
327.902
332.679
336.881
340.474
343.432
345.728
347.342
348.255
348.453
347.925
346.666
344.673
341.949
338.499
334.335
329.472
323.927
317.725
310.892
303.46
295.463
286.939
277.928
268.472
258.617
248.411
237.9
227.133
216.162
205.036
193.806
182.521
171.232
159.988
148.835
137.819
126.985
116.374
106.026
95.977
86.261
76.908
67.946
59.399
51.287
43.628
36.433
29.714
23.475
17.72
12.448
7.655
3.333
-0.526
-3.937
-6.914
-9.476
-11.641
-13.431
-14.869
-15.98
-16.789
-17.323
-17.609
-17.674
-17.547
-17.255
-16.826
-16.287
-15.665
-14.985
-14.272
-13.55
-12.839
-12.161
-11.534
-10.974
-10.496
-10.112
-9.834
-9.669
-9.625
-9.705
-9.914
-10.251
-10.716
-11.307
-12.02
-12.85
-13.79
-14.833
-15.97
-17.193
-18.491
-19.854
-21.27
-22.73
-24.22
-25.729
-27.245
-28.755
-30.249
-31.714
-33.138
-34.512
-35.826
-37.069
-38.234
-39.315
-40.305
-41.198
-41.992
-42.684
-43.272
-43.756
-44.137
-44.418
-44.601
-44.691
-44.691
-44.61
-44.452
-44.226
-43.938
-43.596
-43.208
-42.783
-42.328
-41.853
-41.365
-40.874
-40.389
-39.918
-39.47
-39.055
-38.68
-38.353
-38.082
-37.873
-37.732
-37.664
-37.672
-37.759
-37.926
-38.175
-38.507
-38.918
-39.406
-39.967
-40.595
-41.286
-42.031
-42.822
-43.65
-44.504
-45.375
-46.255
-47.133
-47.997
-48.837
-49.643
-50.404
-51.11
-51.75
-52.313
-52.789
-53.168
-53.443
-53.607
-53.655
-53.579
-53.379
-53.053
-52.604
-52.036
-51.354
-50.564
-49.677
-48.705
-47.66
-46.554
-45.401
-44.21
-42.999
-41.781
-40.571
-39.382
-38.229
-37.125
-36.087
-35.129
-34.255
-33.464
-32.754
-32.126
-31.589
-31.161
-30.854
-30.674
-30.633
-30.746
-31.022
-31.472
-32.077
-32.792
-33.581
-34.416
-35.297
-36.253
-37.286
-38.367
-39.463
-40.519
-41.497
-42.403
-43.177
-43.689
-43.946
-44.039
-44.184
-44.806
-46.202
-48.478
-51.847
-56.54
-62.501
-69.531
-77.111
-84.254
-90.278
-94.815
-97.288
-97.222
-94.579
-89.498
-82.712
-75.69
-69.429
-64.728
-62.97
-65.335
-72.522
-85.222
-103.265
-125.505
-151.514
-179.463
-204.751
-223.244
-230.697
-225.119
-210.343
-188.797
-159.082
-116.425
-48.339
55.786
197.986
375.017
572.129
769.768
950.954
1095.346
1187.697
1216.516
1171.815
1055.301
873.908
642.053
383.226
121.082
-118.413
-313.531
-452.564
-534.284
-566.937
-562.109
-533.364
-489.339
-437.245
-387.397
-343.495
-308.455
-281.763
-254.839
-225.174
-193.87
-163.51
-141.411
-130.298
-128.246
-133.004
-141
-149.54
-157.696
-164.371
-168.346
-169.213
-167.129
-162.453
-155.783
-147.881
-139.363
-131.05
-123.98
-118.552
-114.703
-112.194
-110.535
-109.329
-108.331
-107.177
-105.446
-102.934
-99.574
-95.42
-90.657
-85.397
-79.699
-73.645
-67.32
-60.812
-54.215
-47.604
-41.04
-34.567
-28.219
-22.019
-15.987
-10.121
-4.412
1.169
6.662
12.094
17.482
22.843
28.185
33.53
38.907
44.341
49.855
55.471
61.204
67.072
73.091
79.268
85.604
92.096
98.736
105.518
112.439
119.492
126.67
133.963
141.357
148.838
156.389
163.99
171.616
179.241
186.836
194.37
201.812
209.132
216.294
223.265
230.011
236.495
242.684
248.541
254.032
259.122
263.777
267.966
271.658
274.825
277.439
279.478
280.92
281.746
281.94
281.491
280.389
278.627
276.203
273.118
269.376
264.984
259.954
254.3
248.041
241.198
233.797
225.864
217.431
208.531
199.198
189.471
179.389
168.994
158.328
147.434
136.359
125.147
113.844
102.495
91.146
79.841
68.623
57.536
46.619
35.913
25.455
15.279
5.42
-4.092
-13.23
-21.967
-30.28
-38.152
-45.563
-52.501
-58.955
-64.917
-70.382
-75.347
-79.814
-83.785
-87.268
-90.272
-92.807
-94.889
-96.535
-97.761
-98.59
-99.044
-99.147
-98.923
-98.4
-97.605
-96.566
-95.311
-93.871
-92.274
-90.548
-88.724
-86.829
-84.89
-82.934
-80.987
-79.074
-77.217
-75.438
-73.757
-72.195
-70.768
-69.491
-68.379
-67.445
-66.697
-66.145
-65.796
-65.653
-65.719
-65.996
-66.483
-67.176
-68.072
-69.164
-70.445
-71.906
-73.538
-75.329
-77.266
-79.336
-81.525
-83.818
-86.202
-88.659
-91.176
-93.736
-96.325
-98.928
-101.532
-104.121
-106.683
-109.205
-111.674
-114.08
-116.412
-118.661
-120.819
-122.878
-124.832
-126.676
-128.408
-130.023
-131.522
-132.902
-134.165
-135.313
-136.348
-137.274
-138.096
-138.819
-139.451
-139.999
-140.47
-140.872
-141.214
-141.504
-141.75
-141.961
-142.143
-142.303
-142.448
-142.584
-142.716
-142.849
-142.989
-143.137
-143.298
-143.471
-143.657
-143.858
-144.07
-144.292
-144.519
-144.748
-144.975
-145.193
-145.399
-145.583
-145.74
-145.861
-145.94
-145.966
-145.933
-145.831
-145.649
-145.383
-145.023
-144.564
-143.999
-143.325
-142.54
-141.646
-140.645
-139.542
-138.341
-137.048
-135.673
-134.224
-132.71
-131.136
-129.511
-127.844
-126.147
-124.436
-122.726
-121.03
-119.365
-117.745
-116.183
-114.697
-113.296
-111.98
-110.755
-109.63
-108.621
-107.764
-107.086
-106.603
-106.329
-106.273
-106.432
-106.806
-107.369
-108.066
-108.85
-109.673
-110.5
-111.319
-112.105
-112.813
-113.39
-113.757
-113.844
-113.619
-113.04
-112.085
-110.772
-109.151
-107.318
-105.439
-103.666
-102.146
-101.047
-100.5
-100.646
-101.619
-103.549
-106.658
-111.124
-116.986
-124.108
-132.124
-140.536
-148.861
-156.51
-162.643
-166.527
-167.746
-166.472
-163.615
-160.24
-157.515
-156.781
-159.334
-166.571
-178.168
-190.915
-201.043
-204.552
-200.213
-192.076
-181.709
-166.366
-138.646
-82.605
14.022
153.288
330.713
529.189
726.663
905.992
1048.59
1140.424
1175.231
1146.842
1056.44
911.51
718.477
489.98
242.015
-6.995
-232.723
-415.293
-541.937
-610.783
-630.548
-611.641
-568.037
-510.484
-448.913
-396.698
-358.184
-334.008
-319.802
-303.621
-281.567
-254.915
-226.834
-204.872
-191.722
-185.422
-184.2
-185.274
-186.757
-188.488
-190.149
-191.101
-190.856
-189.269
-186.276
-181.979
-176.769
-170.949
-164.848
-159.058
-154.111
-150.136
-147.046
-144.615
-142.515
-140.543
-138.547
-136.272
-133.421
-129.851
-125.557
-120.622
-115.199
-109.385
-103.229
-96.803
-90.218
-83.574
-76.965
-70.466
-64.093
-57.852
-51.756
-45.803
-39.99
-34.304
-28.702
-23.137
-17.576
-11.992
-6.366
-0.679
5.096
10.988
17.027
23.236
29.636
36.24
43.063
50.117
57.406
64.933
72.69
80.665
88.849
97.233
105.803
114.546
123.445
132.479
141.626
150.861
160.157
169.483
178.803
188.082
197.283
206.367
215.296
224.029
232.528
240.752
248.662
256.219
263.383
270.118
276.386
282.153
287.385
292.05
296.122
299.573
302.381
304.527
305.994
306.771
306.849
306.221
304.888
302.851
300.115
296.692
292.594
287.838
282.444
276.437
269.844
262.694
255.021
246.859
238.246
229.219
219.821
210.092
200.076
189.816
179.356
168.743
158.019
147.23
136.42
125.632
114.908
104.287
93.81
83.512
73.429
63.592
54.031
44.775
35.847
27.27
19.062
11.239
3.815
-3.202
-9.802
-15.983
-21.742
-27.081
-32.001
-36.51
-40.614
-44.325
-47.653
-50.613
-53.221
-55.493
-57.448
-59.107
-60.49
-61.62
-62.518
-63.207
-63.712
-64.054
-64.258
-64.345
-64.339
-64.262
-64.133
-63.974
-63.803
-63.637
-63.493
-63.385
-63.326
-63.327
-63.399
-63.549
-63.785
-64.113
-64.535
-65.055
-65.674
-66.391
-67.204
-68.111
-69.107
-70.187
-71.345
-72.573
-73.863
-75.206
-76.593
-78.014
-79.458
-80.915
-82.373
-83.821
-85.249
-86.645
-87.999
-89.301
-90.54
-91.709
-92.8
-93.805
-94.719
-95.536
-96.252
-96.864
-97.37
-97.769
-98.06
-98.244
-98.323
-98.3
-98.18
-97.966
-97.665
-97.283
-96.825
-96.301
-95.717
-95.082
-94.405
-93.692
-92.955
-92.2
-91.439
-90.68
-89.931
-89.2
-88.496
-87.825
-87.194
-86.609
-86.072
-85.588
-85.158
-84.785
-84.469
-84.209
-84.005
-83.854
-83.751
-83.692
-83.672
-83.683
-83.717
-83.763
-83.813
-83.856
-83.881
-83.879
-83.838
-83.745
-83.591
-83.364
-83.055
-82.65
-82.141
-81.515
-80.766
-79.885
-78.868
-77.708
-76.405
-74.958
-73.371
-71.65
-69.8
-67.827
-65.739
-63.55
-61.272
-58.918
-56.501
-54.036
-51.537
-49.025
-46.52
-44.042
-41.606
-39.229
-36.925
-34.712
-32.615
-30.643
-28.799
-27.089
-25.516
-24.091
-22.842
-21.777
-20.896
-20.203
-19.695
-19.372
-19.238
-19.27
-19.423
-19.659
-19.928
-20.203
-20.492
-20.78
-21.064
-21.33
-21.523
-21.623
-21.622
-21.488
-21.215
-20.791
-20.178
-19.476
-18.9
-18.695
-19.23
-20.782
-23.464
-27.483
-32.949
-39.721
-47.575
-55.897
-63.726
-70.365
-75.191
-77.478
-76.891
-73.345
-66.867
-58.304
-48.976
-39.997
-32.785
-28.929
-29.616
-35.832
-48.375
-66.258
-86.787
-107.097
-123.462
-134.429
-141.933
-146.821
-148.299
-139.374
-107.011
-39.932
69.162
216.134
387.775
570.21
747.842
911.542
1054.819
1165.194
1230.59
1234.789
1161.757
1008.29
780.809
499.982
201.694
-77.163
-304.141
-460.239
-548.147
-582.977
-583.179
-562.728
-526.102
-473.463
-408.769
-342.107
-283.903
-241.269
-213.145
-190.719
-168.523
-145.366
-123.944
-110.742
-107.508
-112.103
-121.765
-132.059
-140.402
-146.114
-148.265
-146.828
-142.452
-135.626
-127.066
-117.753
-108.39
-99.702
-92.563
-87.261
-83.643
-81.401
-80.007
-79
-78.103
-76.986
-75.286
-72.841
-69.608
-65.647
-61.138
-56.195
-50.88
-45.271
-39.442
-33.475
-27.459
-21.472
-15.579
-9.825
-4.237
1.164
6.368
11.382
16.22
20.917
25.522
30.069
34.581
39.081
43.587
48.126
52.737
57.451
62.299
67.311
72.507
77.909
83.539
89.408
95.522
101.881
108.478
115.312
122.381
129.679
137.2
144.934
152.866
160.98
169.257
177.675
186.205
194.816
203.476
212.148
220.796
229.383
237.869
246.213
254.374
262.31
269.981
277.343
284.356
290.979
297.172
302.897
308.118
312.8
316.91
320.42
323.303
325.536
327.1
327.977
328.156
327.628
326.386
324.431
321.766
318.396
314.333
309.591
304.191
298.154
291.508
284.282
276.51
268.227
259.473
250.287
240.712
230.793
220.575
210.104
199.429
188.596
177.655
166.652
155.635
144.65
133.743
122.956
112.331
101.909
91.726
81.819
72.219
62.957
54.059
45.551
37.452
29.781
22.554
15.78
9.469
3.625
-1.749
-6.654
-11.094
-15.076
-18.608
-21.703
-24.373
-26.635
-28.505
-30.004
-31.152
-31.97
-32.481
-32.71
-32.681
-32.418
-31.946
-31.291
-30.476
-29.526
-28.466
-27.317
-26.103
-24.844
-23.56
-22.271
-20.993
-19.743
-18.536
-17.385
-16.3
-15.293
-14.371
-13.54
-12.807
-12.175
-11.646
-11.221
-10.901
-10.685
-10.57
-10.554
-10.633
-10.802
-11.058
-11.394
-11.804
-12.282
-12.822
-13.416
-14.059
-14.744
-15.465
-16.217
-16.993
-17.788
-18.599
-19.421
-20.249
-21.082
-21.915
-22.748
-23.58
-24.41
-25.238
-26.065
-26.892
-27.722
-28.557
-29.398
-30.247
-31.108
-31.981
-32.869
-33.774
-34.695
-35.634
-36.592
-37.569
-38.566
-39.582
-40.615
-41.663
-42.723
-43.792
-44.865
-45.937
-47.002
-48.052
-49.08
-50.08
-51.042
-51.957
-52.815
-53.606
-54.32
-54.946
-55.472
-55.888
-56.181
-56.341
-56.36
-56.229
-55.942
-55.493
-54.88
-54.102
-53.161
-52.06
-50.803
-49.395
-47.84
-46.148
-44.328
-42.39
-40.345
-38.208
-35.992
-33.718
-31.406
-29.076
-26.748
-24.442
-22.173
-19.963
-17.831
-15.79
-13.86
-12.057
-10.404
-8.931
-7.665
-6.617
-5.801
-5.226
-4.885
-4.775
-4.876
-5.146
-5.555
-6.072
-6.673
-7.353
-8.088
-8.838
-9.565
-10.227
-10.808
-11.316
-11.736
-12.028
-12.186
-12.27
-12.419
-12.806
-13.52
-14.643
-16.304
-18.749
-22.326
-27.203
-33.329
-40.636
-49.099
-58.64
-69.099
-79.874
-89.953
-98.787
-105.952
-110.895
-113.419
-113.137
-110.522
-108.049
-107.002
-107.211
-107.361
-103.396
-96.213
-90.931
-91.367
-103.184
-124.038
-145.7
-164.345
-172.854
-167.673
-147.813
-104.81
-34.752
64.398
194.117
347.696
520.388
704.514
885.565
1046.961
1164.992
1220.412
1203.741
1114.013
963.035
763.393
528.291
275.051
21.05
-209.805
-392.985
-514.087
-568.905
-565.82
-524.699
-464.979
-402.582
-351.195
-313.119
-285.586
-264.728
-241.196
-212.632
-182.234
-153.431
-133.203
-124.092
-123.604
-129.044
-136.781
-144.194
-150.444
-154.676
-155.979
-154.117
-149.401
-142.379
-133.748
-124.308
-114.702
-105.648
-98.047
-92.26
-88.196
-85.619
-84.065
-83.072
-82.342
-81.514
-80.176
-78.143
-75.353
-71.819
-67.687
-63.068
-58.018
-52.628
-46.985
-41.151
-35.201
-29.205
-23.218
-17.315
-11.553
-5.963
-0.571
4.621
9.623
14.448
19.133
23.718
28.235
32.71
37.165
41.622
46.109
50.662
55.31
60.087
65.019
70.127
75.436
80.959
86.705
92.678
98.875
105.289
111.916
118.75
125.783
133.004
140.401
147.956
155.65
163.462
171.365
179.329
187.322
195.309
203.253
211.117
218.863
226.449
233.836
240.981
247.843
254.38
260.552
266.316
271.635
276.468
280.78
284.537
287.706
290.258
292.167
293.409
293.967
293.822
292.964
291.384
289.077
286.043
282.286
277.812
272.635
266.768
260.231
253.047
245.243
236.849
227.898
218.425
208.469
198.07
187.273
176.121
164.66
152.939
141.004
128.904
116.689
104.408
92.109
79.84
67.647
55.576
43.671
31.975
20.526
9.364
-1.477
-11.965
-22.068
-31.762
-41.02
-49.824
-58.155
-65.998
-73.343
-80.18
-86.505
-92.314
-97.608
-102.391
-106.669
-110.449
-113.743
-116.563
-118.927
-120.849
-122.35
-123.45
-124.171
-124.536
-124.569
-124.295
-123.739
-122.927
-121.885
-120.64
-119.216
-117.641
-115.937
-114.13
-112.243
-110.298
-108.316
-106.318
-104.321
-102.344
-100.402
-98.51
-96.682
-94.928
-93.26
-91.687
-90.215
-88.852
-87.601
-86.466
-85.45
-84.553
-83.776
-83.118
-82.578
-82.152
-81.838
-81.632
-81.529
-81.525
-81.614
-81.792
-82.052
-82.389
-82.798
-83.274
-83.812
-84.407
-85.054
-85.748
-86.486
-87.264
-88.078
-88.925
-89.803
-90.708
-91.638
-92.593
-93.57
-94.567
-95.583
-96.618
-97.669
-98.735
-99.814
-100.905
-102.003
-103.109
-104.218
-105.329
-106.438
-107.541
-108.634
-109.711
-110.768
-111.797
-112.793
-113.746
-114.648
-115.492
-116.268
-116.969
-117.584
-118.104
-118.52
-118.824
-119.005
-119.056
-118.966
-118.726
-118.33
-117.77
-117.043
-116.144
-115.071
-113.824
-112.408
-110.827
-109.086
-107.192
-105.155
-102.985
-100.697
-98.304
-95.819
-93.257
-90.634
-87.971
-85.286
-82.598
-79.922
-77.274
-74.67
-72.129
-69.673
-67.309
-65.041
-62.874
-60.813
-58.873
-57.081
-55.444
-53.967
-52.656
-51.518
-50.563
-49.802
-49.221
-48.781
-48.444
-48.179
-47.975
-47.852
-47.82
-47.872
-47.98
-48.1
-48.213
-48.315
-48.402
-48.42
-48.294
-48.037
-47.78
-47.806
-48.502
-50.192
-53.06
-57.313
-63.198
-70.68
-79.539
-89.186
-98.485
-106.396
-112.145
-114.921
-114.054
-109.406
-101.105
-89.955
-77.813
-66.578
-58.049
-54.094
-56.355
-65.954
-83.494
-108.822
-139.579
-171.737
-201.331
-224.073
-238.029
-244.34
-242.398
-230.051
-201.441
-147.014
-60.04
62.23
215.904
391.874
578.457
762.246
930.248
1066.348
1155.527
1184.397
1142.59
1031.557
858.087
636.658
389.585
136.885
-98.609
-297.837
-450.417
-550.27
-599.911
-604.545
-572.103
-514.271
-443.742
-377.721
-326.962
-293.821
-274.217
-255.198
-229.705
-198.364
-165.551
-140.609
-127.956
-126.085
-132.103
-141.489
-150.989
-159.413
-165.639
-168.71
-168.353
-164.741
-158.349
-149.902
-140.287
-130.282
-120.768
-112.717
-106.475
-101.942
-98.828
-96.61
-94.85
-93.253
-91.443
-89.042
-85.878
-81.904
-77.187
-71.904
-66.163
-60.028
-53.579
-46.887
-40.033
-33.102
-26.168
-19.295
-12.534
-5.915
0.537
6.807
12.897
18.817
24.597
30.281
35.898
41.467
47.007
52.53
58.063
63.639
69.291
75.046
80.93
86.962
93.161
99.543
106.119
112.893
119.865
127.032
134.392
141.938
149.666
157.584
165.702
174.027
182.544
191.217
200.007
208.907
217.898
226.891
235.745
244.323
252.527
260.362
267.878
275.009
281.744
288.317
294.916
301.58
308.3
314.72
321.169
329.205
339.539
351.081
359.844
359.648
347.233
325.751
304.601
294.554
301.296
321.441
343.998
358.778
361.183
352.93
340.541
328.787
318.715
309.654
300.019
289.123
277.388
265.326
253.328
241.682
230.799
220.727
211.048
201.469
191.756
181.786
171.706
161.516
150.992
140.133
129.145
118.194
107.478
97.092
86.979
77.146
67.672
58.584
49.893
41.6
33.679
26.135
19.008
12.323
6.096
0.331
-4.984
-9.861
-14.306
-18.332
-21.95
-25.173
-28.022
-30.517
-32.68
-34.536
-36.107
-37.42
-38.502
-39.383
-40.092
-40.656
-41.097
-41.437
-41.699
-41.906
-42.08
-42.242
-42.412
-42.606
-42.842
-43.136
-43.5
-43.948
-44.488
-45.128
-45.876
-46.736
-47.712
-48.807
-50.02
-51.351
-52.798
-54.356
-56.021
-57.786
-59.645
-61.589
-63.608
-65.695
-67.838
-70.028
-72.254
-74.505
-76.772
-79.043
-81.31
-83.561
-85.787
-87.98
-90.13
-92.231
-94.273
-96.25
-98.156
-99.985
-101.732
-103.393
-104.964
-106.441
-107.823
-109.109
-110.297
-111.388
-112.382
-113.28
-114.085
-114.799
-115.424
-115.964
-116.421
-116.798
-117.099
-117.329
-117.492
-117.59
-117.627
-117.607
-117.534
-117.411
-117.24
-117.025
-116.766
-116.466
-116.129
-115.756
-115.35
-114.914
-114.448
-113.955
-113.438
-112.9
-112.342
-111.765
-111.171
-110.562
-109.944
-109.318
-108.69
-108.062
-107.442
-106.837
-106.256
-105.709
-105.205
-104.755
-104.372
-104.07
-103.863
-103.761
-103.776
-103.918
-104.197
-104.623
-105.205
-105.948
-106.859
-107.943
-109.206
-110.652
-112.276
-114.062
-115.998
-118.07
-120.27
-122.601
-125.058
-127.633
-130.324
-133.13
-136.051
-139.084
-142.204
-145.355
-148.492
-151.58
-154.608
-157.6
-160.552
-163.437
-166.226
-168.867
-171.32
-173.585
-175.597
-177.216
-178.438
-179.348
-180.152
-181.263
-182.993
-185.474
-188.946
-193.656
-199.535
-206.326
-213.448
-219.848
-224.746
-227.666
-227.951
-225.057
-218.965
-209.965
-198.97
-187.604
-177.07
-168.418
-163.158
-162.55
-167.514
-178.758
-195.989
-218.408
-244.565
-270.852
-293.075
-307.473
-313.106
-314.016
-312.928
-307.515
-288.218
-238.079
-145.025
-8.461
161.262
345.062
526.518
697.315
852.487
985.254
1083.155
1126.913
1098.971
993.593
815.56
582.22
320.156
55.457
-184.172
-376.617
-512.948
-594.25
-632.881
-643.617
-633.919
-606.39
-560.319
-499.101
-434.237
-376.858
-334.394
-306.315
-283.955
-261.64
-238.002
-215.485
-200.309
-194.491
-196.46
-204
-213.156
-221.486
-228.11
-231.807
-232.298
-230.017
-225.262
-218.563
-210.729
-202.372
-194.265
-187.439
-182.316
-178.838
-176.764
-175.602
-174.927
-174.487
-173.925
-172.814
-170.937
-168.219
-164.704
-160.58
-155.959
-150.897
-145.472
-139.762
-133.85
-127.825
-121.756
-115.697
-109.684
-103.74
-97.881
-92.119
-86.444
-80.84
-75.272
-69.691
-64.065
-58.37
-52.585
-46.699
-40.684
-34.511
-28.153
-21.584
-14.783
-7.736
-0.427
7.157
15.02
23.16
31.569
40.232
49.136
58.273
67.628
77.185
86.925
96.825
106.861
117.006
127.228
137.493
147.764
157.998
168.156
178.195
188.073
197.745
207.168
216.296
225.087
233.496
241.48
248.998
256.008
262.471
268.351
273.614
278.227
282.161
285.392
287.898
289.659
290.663
290.898
290.357
289.038
286.942
284.075
280.447
276.07
270.963
265.146
258.646
251.491
243.714
235.351
226.44
217.022
207.14
196.839
186.165
175.168
163.895
152.396
140.723
128.924
117.05
105.15
93.272
81.464
69.77
58.235
46.9
35.804
24.984
14.475
4.307
-5.49
-14.89
-23.872
-32.415
-40.504
-48.125
-55.268
-61.926
-68.094
-73.773
-78.962
-83.668
-87.895
-91.655
-94.959
-97.82
-100.255
-102.28
-103.916
-105.183
-106.103
-106.699
-106.994
-107.013
-106.779
-106.318
-105.655
-104.813
-103.818
-102.693
-101.46
-100.143
-98.761
-97.336
-95.887
-94.431
-92.984
-91.563
-90.18
-88.85
-87.582
-86.387
-85.275
-84.251
-83.322
-82.493
-81.766
-81.144
-80.628
-80.217
-79.911
-79.706
-79.601
-79.59
-79.669
-79.832
-80.073
-80.387
-80.765
-81.201
-81.686
-82.215
-82.779
-83.372
-83.985
-84.613
-85.249
-85.886
-86.52
-87.143
-87.752
-88.342
-88.909
-89.449
-89.96
-90.438
-90.882
-91.289
-91.658
-91.989
-92.281
-92.533
-92.747
-92.922
-93.059
-93.161
-93.229
-93.264
-93.269
-93.245
-93.195
-93.121
-93.024
-92.906
-92.766
-92.606
-92.426
-92.225
-92.004
-91.759
-91.491
-91.195
-90.87
-90.511
-90.115
-89.676
-89.19
-88.65
-88.051
-87.387
-86.654
-85.844
-84.951
-83.97
-82.895
-81.721
-80.44
-79.046
-77.535
-75.9
-74.14
-72.251
-70.231
-68.08
-65.8
-63.396
-60.873
-58.238
-55.498
-52.663
-49.745
-46.758
-43.717
-40.634
-37.523
-34.4
-31.28
-28.185
-25.129
-22.128
-19.197
-16.348
-13.597
-10.965
-8.466
-6.1
-3.871
-1.783
0.158
1.926
3.507
4.894
6.078
7.055
7.821
8.368
8.71
8.883
8.928
8.893
8.813
8.695
8.545
8.372
8.194
8.065
8.037
8.142
8.428
8.921
9.636
10.604
11.739
12.839
13.646
13.821
13.049
11.158
8.025
3.565
-2.066
-8.604
-15.655
-22.542
-28.611
-33.295
-36.126
-36.849
-35.555
-32.454
-27.9
-22.627
-17.627
-14.177
-13.403
-16.302
-23.615
-35.608
-52.677
-73.612
-94.757
-112.129
-121.427
-121.245
-115.036
-104.852
-90.257
-65.27
-15.845
70.522
201.768
377.734
585.254
804.277
1011.023
1181.518
1297.459
1347.181
1325.206
1231.348
1070.409
851.869
591.486
313.39
45.794
-184.572
-356.701
-463.013
-507.876
-500.831
-458.478
-396.514
-327.735
-267.415
-221.371
-189.083
-167.019
-143.854
-115.088
-82.946
-51.202
-28.1
-17.037
-15.732
-21.376
-29.928
-38.45
-46.037
-51.754
-54.607
-54.36
-51.296
-45.894
-38.824
-30.869
-22.644
-14.92
-8.681
-4.274
-1.589
-0.354
-0.041
-0.235
-0.691
-1.046
-0.887
-0.011
1.661
4.088
7.094
10.585
14.514
18.81
23.403
28.215
33.157
38.158
43.157
48.109
52.989
57.774
62.456
67.041
71.546
76.004
80.468
84.971
89.538
94.191
98.945
103.823
108.859
114.084
119.524
125.203
131.14
137.348
143.844
150.633
157.712
165.073
172.7
180.579
188.698
197.041
205.592
214.33
223.228
232.261
241.401
250.615
259.865
269.112
278.312
287.423
296.401
305.199
313.774
322.077
330.063
337.688
344.905
351.67
357.942
363.678
368.838
373.385
377.285
380.506
383.019
384.801
385.829
386.087
385.563
384.248
382.138
379.234
375.539
371.063
365.819
359.824
353.098
345.668
337.562
328.815
319.462
309.543
299.101
288.18
276.828
265.092
253.022
240.671
228.088
215.326
202.438
189.475
176.489
163.531
150.651
137.895
125.311
112.941
100.828
89.009
77.521
66.395
55.661
45.346
35.473
26.061
17.126
8.682
0.738
-6.7
-13.629
-20.049
-25.963
-31.377
-36.3
-40.743
-44.72
-48.244
-51.335
-54.01
-56.291
-58.199
-59.757
-60.991
-61.924
-62.583
-62.993
-63.181
-63.172
-62.992
-62.667
-62.22
-61.675
-61.054
-60.38
-59.673
-58.951
-58.233
-57.536
-56.873
-56.259
-55.705
-55.221
-54.817
-54.499
-54.274
-54.146
-54.12
-54.196
-54.378
-54.664
-55.055
-55.549
-56.142
-56.831
-57.612
-58.48
-59.428
-60.451
-61.541
-62.693
-63.897
-65.148
-66.437
-67.757
-69.1
-70.458
-71.824
-73.192
-74.553
-75.901
-77.231
-78.537
-79.813
-81.056
-82.261
-83.426
-84.546
-85.619
-86.643
-87.615
-88.535
-89.401
-90.213
-90.97
-91.674
-92.324
-92.923
-93.473
-93.974
-94.43
-94.842
-95.213
-95.546
-95.844
-96.109
-96.345
-96.554
-96.742
-96.91
-97.062
-97.202
-97.332
-97.455
-97.573
-97.688
-97.8
-97.91
-98.019
-98.126
-98.232
-98.336
-98.438
-98.536
-98.627
-98.711
-98.783
-98.842
-98.88
-98.895
-98.882
-98.837
-98.755
-98.632
-98.463
-98.243
-97.97
-97.638
-97.245
-96.786
-96.257
-95.653
-94.975
-94.219
-93.387
-92.477
-91.492
-90.436
-89.314
-88.135
-86.907
-85.639
-84.343
-83.031
-81.718
-80.416
-79.139
-77.895
-76.697
-75.558
-74.492
-73.507
-72.616
-71.826
-71.15
-70.597
-70.176
-69.885
-69.715
-69.658
-69.709
-69.868
-70.148
-70.555
-71.088
-71.754
-72.56
-73.511
-74.61
-75.833
-77.127
-78.449
-79.764
-81.059
-82.351
-83.63
-84.863
-86.016
-87.033
-87.866
-88.509
-88.895
-88.9
-88.531
-87.867
-87.093
-86.581
-86.609
-87.309
-88.916
-91.664
-95.507
-100.251
-105.442
-110.241
-114.04
-116.446
-116.86
-114.769
-110.103
-103.044
-94.273
-85.072
-76.425
-69.303
-65.174
-65.336
-70.782
-82.284
-99.742
-122.524
-149.009
-175.232
-196.676
-209.108
-211.221
-207.012
-199.216
-185.77
-158.856
-103.395
-7.333
129.546
299.435
486.526
670.901
840.017
981.62
1081.51
1132.012
1122.989
1049.205
917.03
731.785
507.563
266.605
29.918
-174.477
-325.251
-418.354
-459.285
-466.5
-460.513
-449.478
-434.916
-412.811
-377.554
-331.078
-279.282
-228.187
-183.524
-148.021
-121.853
-104.695
-95.752
-93.581
-96.507
-103.058
-111.79
-121.067
-129.599
-136.226
-139.889
-140.479
-138.456
-134.265
-128.51
-121.912
-115.06
-108.67
-103.49
-99.728
-97.215
-95.648
-94.628
-93.839
-93.061
-92.019
-90.383
-87.99
-84.828
-80.983
-76.607
-71.802
-66.616
-61.105
-55.359
-49.471
-43.525
-37.604
-31.735
-25.93
-20.205
-14.566
-9.013
-3.542
1.872
7.274
12.695
18.155
23.667
29.24
34.89
40.645
46.531
52.57
58.78
65.173
71.759
78.55
85.553
92.765
100.181
107.786
115.569
123.522
131.633
139.89
148.276
156.771
165.354
174.003
182.692
191.39
200.064
208.68
217.201
225.592
233.814
241.829
249.599
257.085
264.249
271.052
277.459
283.431
288.934
293.933
298.396
302.295
305.601
308.29
310.339
311.73
312.446
312.477
311.812
310.446
308.377
305.605
302.137
297.981
293.149
287.655
281.52
274.765
267.417
259.505
251.061
242.118
232.713
222.886
212.676
202.127
191.281
180.182
168.875
157.406
145.821
134.164
122.479
110.812
99.204
87.697
76.331
65.144
54.171
43.448
33.005
22.873
13.078
3.645
-5.404
-14.05
-22.275
-30.067
-37.414
-44.306
-50.739
-56.71
-62.217
-67.263
-71.852
-75.991
-79.69
-82.959
-85.812
-88.264
-90.332
-92.034
-93.39
-94.419
-95.144
-95.586
-95.768
-95.712
-95.443
-94.982
-94.353
-93.578
-92.679
-91.679
-90.599
-89.459
-88.278
-87.077
-85.873
-84.684
-83.524
-82.409
-81.353
-80.368
-79.466
-78.655
-77.945
-77.341
-76.851
-76.476
-76.221
-76.086
-76.071
-76.175
-76.394
-76.726
-77.165
-77.708
-78.346
-79.073
-79.882
-80.763
-81.71
-82.711
-83.758
-84.84
-85.948
-87.07
-88.197
-89.318
-90.422
-91.499
-92.539
-93.532
-94.47
-95.342
-96.14
-96.858
-97.487
-98.022
-98.457
-98.789
-99.015
-99.131
-99.139
-99.037
-98.827
-98.51
-98.09
-97.57
-96.953
-96.246
-95.453
-94.582
-93.638
-92.63
-91.566
-90.454
-89.305
-88.126
-86.928
-85.721
-84.513
-83.315
-82.135
-80.984
-79.87
-78.8
-77.783
-76.827
-75.937
-75.12
-74.379
-73.718
-73.139
-72.642
-72.228
-71.893
-71.637
-71.455
-71.342
-71.294
-71.305
-71.367
-71.472
-71.612
-71.777
-71.96
-72.15
-72.338
-72.514
-72.67
-72.798
-72.887
-72.929
-72.916
-72.843
-72.707
-72.508
-72.245
-71.923
-71.544
-71.116
-70.647
-70.14
-69.598
-69.021
-68.414
-67.782
-67.136
-66.489
-65.853
-65.237
-64.651
-64.104
-63.601
-63.144
-62.719
-62.318
-61.941
-61.596
-61.315
-61.132
-61.065
-61.138
-61.366
-61.746
-62.283
-62.965
-63.764
-64.674
-65.685
-66.786
-67.999
-69.316
-70.703
-72.131
-73.493
-74.646
-75.557
-76.247
-76.818
-77.52
-78.537
-79.977
-82.062
-84.952
-88.563
-92.634
-96.58
-99.616
-101.271
-101.4
-100.036
-97.465
-94.221
-91.07
-89.105
-89.425
-92.733
-99.175
-108.073
-118.513
-129.683
-140.383
-150.605
-160.777
-169.841
-178.163
-184.976
-188.109
-189.283
-189.123
-188.781
-192.667
-200.741
-211.49
-220.848
-216.988
-188.099
-123.367
-15.197
133.046
312.715
510.084
705.734
883.095
1024.697
1114.702
1146.948
1118.529
1032.054
895.541
712.605
489.735
240.273
-16.76
-252.436
-439.153
-561.035
-617.295
-621.495
-590.457
-538.506
-473.685
-400.909
-329.486
-268.699
-225.374
-200.929
-187.248
-174.693
-158.479
-138.395
-119.89
-108.929
-106.566
-111.419
-120.364
-129.585
-137.492
-143.352
-146.355
-146.607
-144.397
-139.863
-133.635
-126.426
-118.79
-111.537
-105.445
-100.782
-97.467
-95.243
-93.714
-92.56
-91.555
-90.382
-88.702
-86.341
-83.284
-79.615
-75.476
-70.963
-66.116
-60.989
-55.673
-50.248
-44.793
-39.375
-34.012
-28.711
-23.487
-18.345
-13.284
-8.296
-3.349
1.605
6.596
11.645
16.772
21.987
27.311
32.775
38.403
44.222
50.251
56.506
63.003
69.755
76.772
84.054
91.598
99.391
107.426
115.692
124.18
132.877
141.767
150.831
160.048
169.394
178.844
188.367
197.93
207.497
217.031
226.495
235.849
245.054
254.068
262.85
271.358
279.551
287.387
294.826
301.828
308.353
314.364
319.825
324.703
328.967
332.587
335.538
337.797
339.345
340.166
340.247
339.578
338.155
335.976
333.042
329.359
324.936
319.783
313.919
307.361
300.134
292.262
283.774
274.703
265.081
254.946
244.335
233.289
221.849
210.058
197.961
185.602
173.026
160.279
147.406
134.453
121.464
108.482
95.551
82.712
70.005
57.468
45.137
33.048
21.231
9.719
-1.462
-12.285
-22.727
-32.766
-42.384
-51.564
-60.292
-68.556
-76.348
-83.661
-90.49
-96.835
-102.695
-108.073
-112.975
-117.406
-121.376
-124.895
-127.976
-130.633
-132.879
-134.733
-136.211
-137.333
-138.117
-138.584
-138.755
-138.651
-138.294
-137.705
-136.907
-135.921
-134.769
-133.474
-132.056
-130.538
-128.94
-127.283
-125.586
-123.869
-122.151
-120.448
-118.777
-117.154
-115.593
-114.108
-112.709
-111.409
-110.216
-109.139
-108.184
-107.359
-106.666
-106.108
-105.688
-105.406
-105.261
-105.251
-105.372
-105.621
-105.993
-106.48
-107.076
-107.772
-108.561
-109.431
-110.374
-111.377
-112.428
-113.517
-114.631
-115.756
-116.881
-117.992
-119.078
-120.126
-121.125
-122.062
-122.928
-123.711
-124.403
-124.995
-125.478
-125.847
-126.095
-126.218
-126.213
-126.077
-125.811
-125.414
-124.888
-124.235
-123.46
-122.567
-121.562
-120.454
-119.249
-117.958
-116.59
-115.157
-113.67
-112.142
-110.586
-109.014
-107.44
-105.877
-104.338
-102.836
-101.385
-99.996
-98.682
-97.455
-96.325
-95.302
-94.394
-93.608
-92.951
-92.426
-92.038
-91.786
-91.67
-91.688
-91.838
-92.115
-92.513
-93.023
-93.636
-94.341
-95.126
-95.978
-96.88
-97.816
-98.77
-99.723
-100.657
-101.556
-102.399
-103.168
-103.843
-104.406
-104.839
-105.124
-105.244
-105.181
-104.921
-104.452
-103.762
-102.845
-101.692
-100.302
-98.673
-96.807
-94.709
-92.387
-89.851
-87.112
-84.188
-81.095
-77.853
-74.481
-71
-67.432
-63.803
-60.138
-56.46
-52.797
-49.173
-45.616
-42.157
-38.818
-35.614
-32.557
-29.663
-26.948
-24.44
-22.162
-20.128
-18.353
-16.854
-15.641
-14.721
-14.087
-13.699
-13.514
-13.497
-13.626
-13.903
-14.347
-14.939
-15.643
-16.418
-17.207
-17.99
-18.756
-19.428
-19.931
-20.309
-20.703
-21.39
-22.723
-24.897
-28.009
-32.23
-37.682
-44.296
-51.799
-59.629
-67.13
-73.951
-79.893
-84.655
-87.935
-89.606
-89.868
-89.337
-88.572
-87.746
-87.018
-86.806
-87.762
-90.708
-96.18
-104.184
-115.136
-128.848
-143.369
-156.259
-164.346
-166.455
-165.281
-163.15
-159.638
-148.027
-115.668
-49.561
59.231
210.294
395.92
601.617
808.313
997.433
1147.252
1240.029
1264.124
1213.036
1092.959
914.518
691.775
444.084
190.233
-47.839
-248.617
-397.116
-488.722
-528.718
-527.547
-500.168
-456.735
-405.467
-357.251
-315.177
-281.149
-254.234
-226.058
-194.616
-161.828
-130.881
-108.836
-98.113
-96.521
-101.433
-109.319
-117.602
-125.303
-131.376
-134.689
-134.881
-132.231
-127.255
-120.626
-113.146
-105.457
-98.34
-92.763
-89.074
-87.159
-86.715
-87.202
-88.181
-89.378
-90.426
-90.925
-90.676
-89.608
-87.765
-85.319
-82.371
-78.973
-75.197
-71.106
-66.778
-62.296
-57.734
-53.154
-48.601
-44.101
-39.67
-35.316
-31.027
-26.787
-22.555
-18.279
-13.921
-9.456
-4.858
-0.114
4.803
9.929
15.294
20.927
26.853
33.089
39.652
46.558
53.808
61.402
69.328
77.57
86.112
94.943
104.043
113.395
122.976
132.76
142.717
152.819
163.031
173.313
183.623
193.918
204.151
214.278
224.251
234.023
243.546
252.772
261.656
270.149
278.207
285.784
292.837
299.324
305.206
310.447
315.014
318.876
322.008
324.387
325.996
326.82
326.851
326.082
324.513
322.147
318.992
315.06
310.365
304.928
298.772
291.926
284.422
276.293
267.577
258.316
248.55
238.325
227.688
216.684
205.363
193.774
181.967
169.992
157.901
145.741
133.563
121.414
109.34
97.385
85.592
74
62.647
51.567
40.791
30.35
20.269
10.571
1.275
-7.601
-16.044
-24.044
-31.594
-38.688
-45.325
-51.507
-57.237
-62.521
-67.366
-71.783
-75.783
-79.38
-82.59
-85.428
-87.912
-90.063
-91.899
-93.441
-94.71
-95.728
-96.515
-97.093
-97.482
-97.704
-97.777
-97.72
-97.553
-97.293
-96.956
-96.559
-96.115
-95.639
-95.141
-94.635
-94.128
-93.629
-93.147
-92.686
-92.254
-91.855
-91.491
-91.168
-90.886
-90.647
-90.452
-90.301
-90.194
-90.128
-90.103
-90.117
-90.166
-90.25
-90.366
-90.51
-90.68
-90.874
-91.088
-91.32
-91.567
-91.826
-92.094
-92.369
-92.649
-92.931
-93.215
-93.498
-93.779
-94.059
-94.334
-94.606
-94.873
-95.134
-95.389
-95.638
-95.879
-96.112
-96.338
-96.557
-96.769
-96.974
-97.173
-97.366
-97.553
-97.735
-97.912
-98.085
-98.254
-98.42
-98.584
-98.747
-98.91
-99.076
-99.245
-99.418
-99.596
-99.781
-99.974
-100.175
-100.385
-100.605
-100.836
-101.079
-101.335
-101.606
-101.892
-102.194
-102.513
-102.85
-103.204
-103.574
-103.96
-104.36
-104.772
-105.196
-105.63
-106.071
-106.516
-106.962
-107.406
-107.842
-108.265
-108.67
-109.048
-109.393
-109.698
-109.956
-110.159
-110.301
-110.374
-110.372
-110.286
-110.11
-109.838
-109.46
-108.97
-108.361
-107.627
-106.764
-105.767
-104.635
-103.368
-101.967
-100.438
-98.783
-97.008
-95.119
-93.124
-91.034
-88.86
-86.61
-84.297
-81.932
-79.529
-77.107
-74.681
-72.263
-69.864
-67.498
-65.175
-62.916
-60.73
-58.616
-56.576
-54.613
-52.734
-50.962
-49.313
-47.789
-46.396
-45.141
-44.026
-43.064
-42.245
-41.535
-40.9
-40.298
-39.703
-39.114
-38.531
-37.948
-37.346
-36.676
-35.902
-35.006
-33.964
-32.762
-31.363
-29.724
-27.924
-26.149
-24.675
-23.874
-24.027
-25.302
-27.926
-32.054
-37.621
-44.418
-51.848
-58.976
-65.062
-69.431
-71.362
-70.472
-66.648
-59.997
-51.454
-42.4
-34.078
-28.22
-26.695
-30.792
-41.724
-59.359
-81.321
-105.298
-128.532
-149.26
-168.726
-185.96
-197.947
-198.599
-175.482
-119.52
-26.746
103.069
259.631
432.785
615.455
795.236
963.3
1107.244
1207.657
1254.181
1237.779
1154.329
1011.649
813.933
572.71
310.913
51.729
-172.544
-335.239
-430.954
-464.039
-451.352
-416.206
-369.597
-319.578
-274.047
-232.149
-196.009
-166.216
-135.694
-103.728
-71.976
-42.47
-21.954
-12.781
-12.794
-19.668
-29.848
-40.534
-50.658
-59.082
-64.526
-66.559
-65.419
-61.564
-55.677
-48.603
-41.012
-33.747
-27.875
-23.812
-21.496
-20.689
-20.877
-21.642
-22.725
-23.739
-24.254
-24.057
-23.065
-21.313
-18.971
-16.134
-12.843
-9.174
-5.188
-0.96
3.432
7.925
12.467
17.013
21.541
26.031
30.472
34.87
39.24
43.613
48.036
52.54
57.149
61.881
66.749
71.773
76.985
82.413
88.082
94.015
100.228
106.737
113.556
120.69
128.138
135.891
143.933
152.251
160.834
169.666
178.731
188.008
197.471
207.095
216.849
226.702
236.616
246.549
256.458
266.299
276.026
285.593
294.952
304.054
312.853
321.298
329.344
336.943
344.05
350.618
356.606
361.974
366.683
370.699
373.99
376.529
378.29
379.256
379.409
378.739
377.239
374.906
371.743
367.757
362.959
357.365
350.996
343.876
336.037
327.511
318.337
308.556
298.212
287.353
276.029
264.292
252.196
239.796
227.15
214.314
201.345
188.301
175.239
162.214
149.28
136.491
123.897
111.546
99.484
87.754
76.394
65.441
54.928
44.884
35.334
26.299
17.797
9.841
2.441
-4.397
-10.671
-16.383
-21.537
-26.143
-30.213
-33.761
-36.805
-39.365
-41.464
-43.127
-44.38
-45.251
-45.769
-45.966
-45.87
-45.513
-44.927
-44.142
-43.189
-42.097
-40.895
-39.61
-38.27
-36.897
-35.517
-34.149
-32.814
-31.53
-30.311
-29.172
-28.124
-27.177
-26.34
-25.617
-25.013
-24.53
-24.168
-23.927
-23.803
-23.793
-23.89
-24.089
-24.382
-24.761
-25.217
-25.739
-26.319
-26.946
-27.61
-28.302
-29.011
-29.728
-30.445
-31.153
-31.845
-32.514
-33.154
-33.76
-34.327
-34.851
-35.331
-35.763
-36.147
-36.483
-36.771
-37.013
-37.211
-37.368
-37.488
-37.574
-37.631
-37.665
-37.681
-37.684
-37.682
-37.679
-37.683
-37.701
-37.738
-37.8
-37.894
-38.024
-38.195
-38.411
-38.676
-38.993
-39.364
-39.789
-40.271
-40.81
-41.406
-42.058
-42.764
-43.522
-44.33
-45.184
-46.079
-47.011
-47.973
-48.959
-49.962
-50.976
-51.992
-53.002
-53.998
-54.971
-55.912
-56.813
-57.662
-58.45
-59.166
-59.803
-60.35
-60.799
-61.143
-61.373
-61.484
-61.47
-61.327
-61.051
-60.637
-60.082
-59.384
-58.542
-57.558
-56.431
-55.163
-53.758
-52.225
-50.574
-48.816
-46.963
-45.025
-43.016
-40.954
-38.854
-36.733
-34.602
-32.473
-30.361
-28.285
-26.262
-24.311
-22.442
-20.664
-18.991
-17.434
-16.009
-14.723
-13.574
-12.56
-11.683
-10.955
-10.398
-10.029
-9.855
-9.876
-10.097
-10.516
-11.13
-11.922
-12.847
-13.859
-14.911
-15.961
-16.986
-17.953
-18.839
-19.617
-20.237
-20.642
-20.785
-20.62
-20.132
-19.376
-18.379
-17.159
-15.854
-14.651
-13.853
-13.9
-15.029
-17.245
-20.569
-25.062
-30.67
-37.242
-44.197
-50.398
-55.038
-57.8
-58.508
-57.077
-53.483
-47.856
-41.124
-35.219
-31.991
-32.788
-38.547
-49.956
-66.673
-86.765
-107.427
-124.56
-136.178
-143.822
-148.222
-148.303
-137.761
-104.923
-39.083
65.956
208.181
378.641
563.216
745.852
911.978
1044.819
1130.67
1158.234
1118.282
1012.484
846.772
633.468
393.662
148.315
-78.251
-264.167
-398.727
-480.666
-518.259
-523.35
-504.986
-467.931
-416.134
-357.374
-300.077
-251.865
-215.48
-185.686
-157.598
-129.506
-103.156
-84.337
-76.365
-78.513
-88.222
-101.292
-114.356
-125.582
-133.46
-137.386
-137.469
-134.035
-127.8
-119.647
-110.499
-101.438
-93.616
-87.688
-83.769
-81.691
-80.996
-81.192
-81.903
-82.678
-83.027
-82.701
-81.607
-79.75
-77.283
-74.328
-70.939
-67.214
-63.238
-59.062
-54.747
-50.343
-45.886
-41.443
-37.063
-32.769
-28.585
-24.511
-20.537
-16.652
-12.824
-9.013
-5.191
-1.336
2.571
6.541
10.601
14.781
19.11
23.614
28.32
33.245
38.41
43.83
49.511
55.457
61.662
68.119
74.822
81.768
88.947
96.35
103.964
111.773
119.759
127.901
136.175
144.553
153.003
161.491
169.984
178.445
186.839
195.125
203.265
211.219
218.946
226.406
233.558
240.362
246.776
252.764
258.286
263.307
267.794
271.714
275.037
277.739
279.795
281.185
281.893
281.904
281.21
279.805
277.686
274.854
271.315
267.078
262.156
256.566
250.328
243.466
236.008
227.984
219.428
210.376
200.865
190.937
180.632
169.997
159.074
147.91
136.553
125.05
113.448
101.794
90.136
78.518
66.986
55.582
44.349
33.325
22.548
12.052
1.87
-7.969
-17.438
-26.514
-35.176
-43.405
-51.189
-58.516
-65.377
-71.768
-77.688
-83.137
-88.12
-92.643
-96.717
-100.353
-103.565
-106.369
-108.785
-110.833
-112.535
-113.913
-114.993
-115.801
-116.364
-116.707
-116.859
-116.846
-116.696
-116.435
-116.09
-115.686
-115.247
-114.796
-114.355
-113.945
-113.585
-113.292
-113.081
-112.968
-112.964
-113.078
-113.32
-113.696
-114.212
-114.869
-115.671
-116.616
-117.704
-118.931
-120.293
-121.784
-123.397
-125.123
-126.953
-128.876
-130.882
-132.96
-135.096
-137.279
-139.497
-141.737
-143.987
-146.234
-148.467
-150.675
-152.848
-154.976
-157.05
-159.062
-161.005
-162.875
-164.666
-166.374
-167.997
-169.532
-170.98
-172.339
-173.611
-174.798
-175.902
-176.926
-177.875
-178.754
-179.568
-180.324
-181.027
-181.685
-182.304
-182.893
-183.457
-184.002
-184.536
-185.064
-185.593
-186.128
-186.673
-187.231
-187.807
-188.401
-189.015
-189.649
-190.301
-190.969
-191.649
-192.337
-193.031
-193.724
-194.408
-195.078
-195.726
-196.344
-196.926
-197.461
-197.94
-198.355
-198.697
-198.961
-199.138
-199.221
-199.204
-199.081
-198.851
-198.515
-198.074
-197.532
-196.891
-196.16
-195.346
-194.459
-193.507
-192.495
-191.43
-190.318
-189.174
-188.009
-186.834
-185.665
-184.51
-183.381
-182.291
-181.244
-180.237
-179.269
-178.337
-177.449
-176.629
-175.892
-175.253
-174.732
-174.341
-174.087
-173.976
-173.982
-174.07
-174.214
-174.397
-174.629
-174.931
-175.29
-175.682
-176.078
-176.421
-176.698
-176.869
-176.825
-176.537
-176.082
-175.639
-175.538
-176.066
-177.328
-179.47
-182.71
-187.089
-192.491
-198.472
-204.251
-209.347
-213.592
-216.795
-218.69
-218.963
-217.482
-214.749
-211.751
-209.05
-206.876
-205.511
-205.481
-207.825
-213.648
-223.378
-236.754
-253.972
-274.42
-295.542
-314.636
-328.18
-334.582
-337.445
-338.859
-335.809
-320.388
-277.314
-193.425
-67.627
93.467
275.813
461.338
639.477
800.688
931.467
1020.834
1053.413
1016.289
910.016
739.97
520.841
275.11
23.642
-210.116
-404.988
-547.109
-631.045
-660.533
-646.673
-606.237
-553.904
-503.021
-463.335
-434.708
-413.522
-392.47
-364.605
-330.708
-295.574
-266.156
-247.349
-238.955
-237.986
-240.497
-243.88
-246.854
-248.437
-247.854
-244.594
-238.683
-230.723
-221.49
-211.738
-202.315
-194.094
-187.985
-184.427
-183.22
-183.969
-186.112
-189.101
-192.565
-196.061
-199.062
-201.277
-202.61
-203.016
-202.579
-201.319
-199.114
-195.965
-191.946
-187.15
-181.777
-175.982
-169.858
-163.542
-157.148
-150.747
-144.411
-138.153
-131.928
-125.721
-119.514
-113.299
-107.123
-101
-94.913
-88.834
-82.697
-76.438
-70.021
-63.394
-56.506
-49.323
-41.82
-33.994
-25.873
-17.479
-8.827
0.069
9.205
18.572
28.15
37.915
47.843
57.903
68.065
78.295
88.548
98.783
108.957
119.034
128.978
138.753
148.32
157.636
166.662
175.357
183.681
191.593
199.051
206.013
212.444
218.309
223.576
228.216
232.202
235.51
238.121
240.018
241.189
241.624
241.318
240.268
238.478
235.952
232.702
228.739
224.082
218.75
212.769
206.166
198.973
191.223
182.953
174.201
165.007
155.414
145.466
135.207
124.683
113.941
103.027
91.99
80.877
69.733
58.604
47.535
36.568
25.744
15.104
4.682
-5.485
-15.365
-24.927
-34.146
-42.995
-51.454
-59.503
-67.127
-74.312
-81.048
-87.327
-93.145
-98.499
-103.388
-107.816
-111.787
-115.307
-118.385
-121.031
-123.257
-125.077
-126.505
-127.557
-128.249
-128.601
-128.629
-128.353
-127.792
-126.967
-125.896
-124.599
-123.096
-121.407
-119.55
-117.544
-115.406
-113.153
-110.801
-108.366
-105.862
-103.303
-100.701
-98.068
-95.415
-92.753
-90.089
-87.433
-84.792
-82.173
-79.582
-77.026
-74.508
-72.034
-69.608
-67.233
-64.912
-62.648
-60.443
-58.3
-56.219
-54.202
-52.249
-50.361
-48.538
-46.781
-45.088
-43.459
-41.894
-40.394
-38.956
-37.581
-36.268
-35.016
-33.826
-32.696
-31.627
-30.618
-29.668
-28.778
-27.946
-27.173
-26.458
-25.8
-25.196
-24.647
-24.151
-23.705
-23.308
-22.958
-22.65
-22.384
-22.157
-21.965
-21.805
-21.675
-21.57
-21.487
-21.422
-21.371
-21.329
-21.291
-21.251
-21.206
-21.149
-21.074
-20.975
-20.846
-20.678
-20.464
-20.198
-19.87
-19.471
-18.993
-18.426
-17.764
-16.997
-16.119
-15.121
-13.995
-12.735
-11.334
-9.786
-8.086
-6.226
-4.204
-2.016
0.339
2.861
5.55
8.403
11.416
14.581
17.892
21.34
24.913
28.6
32.384
36.251
40.186
44.17
48.187
52.219
56.247
60.252
64.218
68.128
71.966
75.712
79.347
82.857
86.241
89.495
92.617
95.6
98.425
101.08
103.565
105.873
107.998
109.931
111.661
113.194
114.57
115.829
117.003
118.111
119.137
120.059
120.883
121.638
122.368
123.111
123.884
124.687
125.583
126.675
127.945
129.258
130.343
130.792
130.308
128.772
126.004
121.79
116.222
109.579
102.429
95.79
90.428
86.78
85.417
86.819
90.972
97.639
106.083
114.841
122.827
129.111
132.32
131.384
125.511
114.02
97.152
75.579
50.769
26.519
7.013
-3.968
-5.327
-1.369
4.877
15.778
39.578
92.123
186.518
323.535
495.727
687.948
881.606
1065.261
1227.511
1352.888
1427.495
1435.047
1364.401
1218.845
1011.207
763.995
507.309
268.404
68.972
-77.904
-174.57
-231.348
-260.762
-273.469
-269.615
-246.436
-204.433
-148.902
-92.066
-44.399
-8.699
19.288
46.057
74.794
103.353
125.564
137.44
139.164
132.837
121.765
108.528
94.132
80.047
68.377
60.157
55.55
54.565
56.841
61.989
69.991
79.87
89.704
98.471
105.825
111.637
116.248
119.732
121.709
122.497
123.035
123.878
125.37
127.632
130.415
133.7
137.734
142.478
147.669
153.099
158.547
163.898
169.205
174.453
179.568
184.529
189.342
194.025
198.633
203.201
207.74
212.256
216.757
221.253
225.768
230.327
234.959
239.69
244.542
249.536
254.692
260.028
265.564
271.309
277.265
283.432
289.803
296.375
303.148
310.114
317.26
324.569
332.023
339.603
347.287
355.049
362.857
370.678
378.476
386.211
393.846
401.34
408.65
415.733
422.543
429.038
435.173
440.905
446.191
450.987
455.254
458.952
462.046
464.499
466.282
467.365
467.725
467.341
466.195
464.276
461.572
458.08
453.798
448.731
442.886
436.276
428.916
420.827
412.036
402.57
392.464
381.754
370.479
358.684
346.415
333.718
320.646
307.25
293.584
279.702
265.66
251.515
237.321
223.134
209.008
194.997
181.152
167.523
154.158
141.101
128.396
116.083
104.198
92.776
81.847
71.439
61.575
52.275
43.556
35.43
27.907
20.991
14.685
8.985
3.888
-0.617
-4.54
-7.897
-10.705
-12.986
-14.761
-16.057
-16.899
-17.318
-17.343
-17.004
-16.336
-15.369
-14.137
-12.674
-11.013
-9.186
-7.226
-5.165
-3.034
-0.862
1.321
3.489
5.616
7.677
9.65
11.515
13.253
14.847
16.283
17.549
18.633
19.527
20.225
20.722
21.016
21.105
20.992
20.677
20.167
19.465
18.579
17.518
16.289
14.904
13.371
11.703
9.91
8.006
6.001
3.907
1.738
-0.496
-2.782
-5.109
-7.467
-9.845
-12.235
-14.628
-17.017
-19.395
-21.756
-24.097
-26.412
-28.7
-30.957
-33.184
-35.38
-37.546
-39.683
-41.793
-43.88
-45.946
-47.996
-50.035
-52.065
-54.093
-56.122
-58.158
-60.205
-62.266
-64.345
-66.447
-68.573
-70.727
-72.911
-75.127
-77.375
-79.653
-81.961
-84.296
-86.655
-89.032
-91.421
-93.816
-96.209
-98.593
-100.958
-103.296
-105.596
-107.847
-110.039
-112.161
-114.202
-116.151
-117.994
-119.723
-121.328
-122.801
-124.135
-125.323
-126.361
-127.249
-127.986
-128.573
-129.012
-129.309
-129.469
-129.501
-129.416
-129.223
-128.934
-128.562
-128.119
-127.625
-127.093
-126.537
-125.971
-125.411
-124.872
-124.373
-123.926
-123.531
-123.193
-122.913
-122.701
-122.58
-122.56
-122.646
-122.843
-123.162
-123.612
-124.204
-124.932
-125.76
-126.653
-127.582
-128.536
-129.533
-130.599
-131.729
-132.897
-134.069
-135.216
-136.326
-137.402
-138.384
-139.17
-139.783
-140.356
-141.151
-142.563
-144.89
-148.273
-152.937
-159.157
-166.876
-175.846
-185.508
-194.8
-202.878
-209.183
-212.928
-213.407
-210.486
-204.302
-195.605
-186.079
-177.09
-169.933
-166.498
-168.374
-176.696
-192.348
-215.057
-243.577
-275.899
-308.171
-335.795
-354.214
-361.129
-357.381
-343.387
-318.321
-276.983
-211.052
-114.548
15.589
176.636
361.825
561.366
759.872
937.487
1070.456
1135.996
1120.218
1022.692
854.437
635.723
390.296
138.466
-99.253
-306.219
-470.666
-583.783
-645.768
-661.207
-640.181
-596.978
-544.543
-497.391
-462.559
-439.303
-423.232
-403.931
-376.357
-342.34
-306.337
-276.385
-256.563
-246.253
-243.346
-244.303
-247.164
-251.296
-255.912
-260.466
-264.11
-265.888
-265.615
-263.463
-259.624
-254.564
-248.776
-242.701
-236.97
-232.205
-228.594
-226.006
-224.202
-222.84
-221.651
-220.462
-219.013
-216.991
-214.246
-210.776
-206.659
-202.046
-197.043
-191.694
-186.068
-180.267
-174.381
-168.501
-162.699
-156.993
-151.391
-145.907
-140.538
-135.287
-130.144
-125.071
-120.023
-114.97
-109.888
-104.758
-99.567
-94.29
-88.897
-83.362
-77.662
-71.779
-65.7
-59.41
-52.898
-46.158
-39.19
-31.999
-24.598
-16.994
-9.196
-1.216
6.933
15.236
23.672
32.222
40.862
49.565
58.301
67.037
75.738
84.368
92.889
101.264
109.453
117.418
125.118
132.514
139.568
146.242
152.497
158.296
163.606
168.393
172.627
176.279
179.323
181.737
183.502
184.601
185.023
184.76
183.804
182.156
179.818
176.795
173.099
168.742
163.741
158.117
151.895
145.103
137.77
129.931
121.622
112.88
103.745
94.261
84.468
74.413
64.138
53.69
43.115
32.457
21.761
11.072
0.434
-10.112
-20.526
-30.768
-40.803
-50.595
-60.112
-69.326
-78.208
-86.735
-94.886
-102.64
-109.983
-116.902
-123.385
-129.426
-135.02
-140.164
-144.859
-149.108
-152.915
-156.289
-159.237
-161.772
-163.906
-165.653
-167.027
-168.047
-168.73
-169.093
-169.157
-168.941
-168.465
-167.749
-166.813
-165.678
-164.364
-162.889
-161.274
-159.536
-157.693
-155.763
-153.762
-151.706
-149.609
-147.484
-145.346
-143.205
-141.072
-138.959
-136.872
-134.822
-132.815
-130.858
-128.958
-127.121
-125.35
-123.651
-122.028
-120.484
-119.022
-117.645
-116.355
-115.154
-114.045
-113.027
-112.103
-111.273
-110.538
-109.898
-109.353
-108.902
-108.545
-108.28
-108.108
-108.025
-108.03
-108.121
-108.296
-108.554
-108.89
-109.303
-109.79
-110.345
-110.966
-111.647
-112.383
-113.169
-113.996
-114.859
-115.75
-116.662
-117.586
-118.513
-119.435
-120.341
-121.223
-122.07
-122.871
-123.616
-124.294
-124.895
-125.411
-125.833
-126.15
-126.355
-126.44
-126.398
-126.222
-125.906
-125.445
-124.833
-124.067
-123.147
-122.07
-120.837
-119.451
-117.915
-116.238
-114.426
-112.49
-110.441
-108.292
-106.06
-103.762
-101.415
-99.032
-96.629
-94.219
-91.821
-89.453
-87.13
-84.865
-82.673
-80.568
-78.569
-76.697
-74.957
-73.346
-71.861
-70.501
-69.273
-68.202
-67.302
-66.576
-66.033
-65.676
-65.511
-65.545
-65.756
-66.095
-66.506
-66.937
-67.362
-67.787
-68.215
-68.628
-68.98
-69.19
-69.196
-68.95
-68.426
-67.591
-66.395
-64.884
-63.206
-61.599
-60.423
-59.996
-60.412
-61.725
-63.985
-66.947
-70.42
-74.252
-77.844
-80.672
-82.59
-83.326
-82.819
-81.578
-79.725
-77.13
-74.339
-71.859
-70.075
-69.869
-71.794
-75.813
-82.39
-92.414
-105.381
-119.202
-131.161
-137.719
-137.934
-135.161
-132.098
-128.261
-117.16
-85.656
-20.212
86.695
232.807
407.888
595.262
777.657
941.433
1071.419
1155.996
1185.173
1148.875
1047.05
883.853
670.081
426.672
176.134
-55.751
-245.514
-379.424
-455.194
-480.141
-466.165
-428.833
-378.837
-325.57
-280.807
-247.28
-225.565
-212.429
-197.201
-176.842
-152.956
-128.831
-111.812
-104.197
-103.819
-108.314
-114.147
-119.004
-122.253
-123.128
-121.351
-117.253
-111.241
-103.875
-95.798
-87.647
-80.113
-74
-69.751
-67.301
-66.392
-66.576
-67.375
-68.466
-69.493
-70.04
-69.887
-68.955
-67.236
-64.851
-61.91
-58.454
-54.559
-50.304
-45.738
-40.937
-35.974
-30.909
-25.829
-20.8
-15.85
-11.011
-6.287
-1.665
2.868
7.35
11.831
16.346
20.921
25.58
30.341
35.23
40.281
45.526
50.992
56.706
62.684
68.946
75.503
82.36
89.514
96.957
104.674
112.654
120.885
129.354
138.043
146.935
156.004
165.227
174.578
184.024
193.529
203.056
212.562
222.005
231.343
240.532
249.524
258.276
266.74
274.871
282.625
289.957
296.823
303.183
308.996
314.223
318.831
322.787
326.06
328.625
330.458
331.542
331.861
331.403
330.162
328.134
325.32
321.725
317.357
312.229
306.358
299.765
292.474
284.515
275.92
266.725
256.968
246.69
235.936
224.75
213.181
201.277
189.089
176.666
164.06
151.323
138.507
125.66
112.835
100.078
87.438
74.96
62.687
50.661
38.921
27.504
16.443
5.77
-4.487
-14.302
-23.654
-32.522
-40.891
-48.748
-56.083
-62.89
-69.163
-74.904
-80.114
-84.798
-88.963
-92.62
-95.782
-98.462
-100.679
-102.45
-103.795
-104.737
-105.298
-105.501
-105.372
-104.936
-104.218
-103.245
-102.041
-100.634
-99.047
-97.308
-95.439
-93.465
-91.409
-89.293
-87.138
-84.963
-82.787
-80.628
-78.502
-76.423
-74.405
-72.461
-70.602
-68.836
-67.173
-65.618
-64.178
-62.856
-61.655
-60.577
-59.624
-58.795
-58.09
-57.506
-57.042
-56.695
-56.461
-56.335
-56.313
-56.389
-56.558
-56.814
-57.151
-57.563
-58.047
-58.594
-59.199
-59.855
-60.558
-61.3
-62.076
-62.879
-63.704
-64.544
-65.395
-66.25
-67.108
-67.961
-68.803
-69.628
-70.429
-71.204
-71.949
-72.659
-73.331
-73.96
-74.538
-75.063
-75.532
-75.937
-76.272
-76.529
-76.696
-76.773
-76.755
-76.642
-76.436
-76.12
-75.683
-75.11
-74.385
-73.515
-72.512
-71.371
-70.095
-68.687
-67.13
-65.473
-63.773
-61.961
-59.999
-57.839
-55.397
-52.793
-50.188
-47.543
-44.842
-42.276
-39.947
-38.084
-36.976
-36.366
-35.954
-35.76
-35.719
-35.635
-35.44
-34.793
-33.302
-31.333
-29.263
-27.164
-25.229
-23.574
-22.199
-21.425
-21.574
-22.355
-23.491
-24.847
-26.207
-27.567
-28.983
-30.281
-31.287
-32.053
-32.602
-32.963
-33.199
-33.238
-33.008
-32.534
-31.93
-31.39
-31.178
-31.578
-32.831
-35.135
-38.605
-43.279
-49.008
-55.516
-62.42
-69.146
-75.149
-79.886
-83.031
-84.634
-84.783
-83.52
-81.2
-78.261
-76.07
-77.406
-83.071
-92.433
-103.408
-111.343
-115.741
-119.407
-125.577
-139.041
-159.985
-184.024
-205.099
-214.451
-202.334
-160.232
-82.8
31.224
175.295
338.538
511.127
681.015
840.209
981.222
1090.353
1157.704
1171.872
1122.925
1012.386
842.956
625.128
379.815
128.93
-99.548
-281.596
-407.472
-478.017
-506.177
-507.32
-489.029
-454.859
-405.513
-345.547
-287.591
-242.312
-215.403
-204.25
-197.577
-187.98
-173.279
-155.905
-142.958
-137.165
-137.559
-142.353
-147.74
-151.812
-154.393
-154.801
-153.149
-149.934
-145.233
-139.399
-133.074
-126.622
-120.57
-115.708
-112.28
-110.187
-109.226
-108.956
-109.007
-109.187
-109.201
-108.683
-107.451
-105.431
-102.651
-99.276
-95.401
-91.068
-86.345
-81.3
-76.018
-70.592
-65.101
-59.611
-54.166
-48.797
-43.525
-38.366
-33.318
-28.366
-23.477
-18.601
-13.707
-8.772
-3.775
1.297
6.469
11.773
17.234
22.879
28.727
34.792
41.09
47.632
54.424
61.461
68.736
76.231
83.936
91.839
99.924
108.176
116.576
125.099
133.722
142.419
151.16
159.909
168.632
177.289
185.839
194.243
202.459
210.445
218.158
225.556
232.596
239.237
245.438
251.158
256.358
261.002
265.056
268.488
271.267
273.368
274.768
275.448
275.391
274.585
273.023
270.7
267.616
263.774
259.183
253.853
247.801
241.044
233.607
225.516
216.801
207.496
197.636
187.261
176.41
165.128
153.459
141.45
129.149
116.603
103.863
90.976
77.993
64.961
51.93
38.945
26.052
13.295
0.715
-11.648
-23.758
-35.579
-47.081
-58.234
-69.012
-79.393
-89.357
-98.888
-107.971
-116.598
-124.76
-132.453
-139.674
-146.426
-152.711
-158.536
-163.909
-168.84
-173.343
-177.431
-181.122
-184.432
-187.382
-189.99
-192.279
-194.269
-195.983
-197.444
-198.673
-199.693
-200.526
-201.194
-201.717
-202.116
-202.409
-202.614
-202.749
-202.828
-202.866
-202.876
-202.871
-202.861
-202.855
-202.862
-202.888
-202.941
-203.025
-203.145
-203.303
-203.503
-203.746
-204.033
-204.365
-204.743
-205.165
-205.632
-206.143
-206.696
-207.291
-207.926
-208.601
-209.314
-210.065
-210.853
-211.679
-212.543
-213.444
-214.384
-215.364
-216.384
-217.446
-218.552
-219.703
-220.901
-222.146
-223.442
-224.791
-226.193
-227.649
-229.161
-230.729
-232.352
-234.03
-235.761
-237.54
-239.365
-241.232
-243.136
-245.073
-247.034
-249.014
-251.004
-252.995
-254.977
-256.941
-258.873
-260.762
-262.594
-264.357
-266.04
-267.629
-269.112
-270.475
-271.707
-272.797
-273.734
-274.506
-275.103
-275.515
-275.735
-275.756
-275.575
-275.187
-274.591
-273.79
-272.789
-271.597
-270.222
-268.677
-266.973
-265.128
-263.161
-261.088
-258.928
-256.696
-254.41
-252.092
-249.762
-247.441
-245.147
-242.899
-240.718
-238.622
-236.632
-234.753
-232.984
-231.326
-229.781
-228.359
-227.082
-225.967
-225.021
-224.259
-223.694
-223.336
-223.191
-223.237
-223.417
-223.686
-224.009
-224.369
-224.789
-225.257
-225.739
-226.201
-226.582
-226.831
-226.943
-226.844
-226.409
-225.645
-224.637
-223.576
-222.857
-222.774
-223.46
-225.152
-228.096
-232.241
-237.406
-243.15
-248.61
-253.156
-256.425
-257.824
-256.797
-253.231
-247.196
-239.217
-230.523
-222.084
-214.676
-209.561
-208.205
-211.836
-221.519
-237.85
-259.398
-283.202
-306.179
-324.446
-337.061
-347.35
-357.014
-364.791
-361.599
-330.368
-257.114
-135.102
29.12
219.171
419.906
617.768
804.396
969.635
1095.284
1161.367
1149.732
1054.891
885.983
663.115
412.645
156.929
-82.119
-287.688
-450.413
-562.045
-625.547
-647.617
-632.424
-590.633
-529.486
-458.556
-394.673
-345.93
-316.107
-302.062
-290.319
-274.01
-251.924
-226.401
-205.76
-193.505
-188.16
-187.689
-188.328
-188.126
-187.294
-185.746
-183.314
-179.758
-174.945
-169.05
-162.436
-155.402
-148.126
-140.856
-134.018
-128.117
-123.32
-119.462
-116.242
-113.342
-110.552
-107.74
-104.697
-101.114
-96.815
-91.792
-86.113
-79.922
-73.318
-66.332
-59.021
-51.483
-43.809
-36.093
-28.412
-20.784
-13.218
-5.726
1.692
9.033
16.305
23.545
30.801
38.105
45.486
52.961
60.546
68.265
76.15
84.225
92.512
101.027
109.78
118.781
128.038
137.554
147.324
157.337
167.577
178.029
188.678
199.509
210.5
221.63
232.872
244.2
255.585
266.993
278.387
289.731
300.983
312.101
323.044
333.769
344.233
354.392
364.204
373.625
382.615
391.131
399.133
406.582
413.442
419.679
425.262
430.16
434.347
437.803
440.507
442.446
443.608
443.986
443.577
442.383
440.409
437.665
434.164
429.924
424.966
419.317
413.004
406.061
398.523
390.43
381.822
372.743
363.239
353.356
343.144
332.653
321.933
311.035
300.012
288.914
277.794
266.701
255.685
244.793
234.072
223.565
213.314
203.358
193.734
184.474
175.61
167.168
159.172
151.642
144.597
138.05
132.011
126.487
121.484
117.001
113.036
109.586
106.642
104.194
102.231
100.736
99.694
99.086
98.891
99.086
99.65
100.556
101.781
103.296
105.077
107.096
109.327
111.742
114.318
117.027
119.847
122.752
125.722
128.735
131.771
134.813
137.843
140.846
143.809
146.718
149.565
152.339
155.032
157.639
160.152
162.57
164.887
167.104
169.218
171.231
173.143
174.956
176.674
178.299
179.836
181.288
182.662
183.961
185.19
186.355
187.46
188.509
189.506
190.456
191.36
192.222
193.045
193.828
194.573
195.28
195.948
196.577
197.163
197.704
198.199
198.643
199.033
199.366
199.639
199.847
199.986
200.053
200.044
199.956
199.785
199.527
199.178
198.737
198.201
197.568
196.839
196.011
195.086
194.065
192.952
191.748
190.46
189.09
187.646
186.133
184.56
182.937
181.272
179.576
177.861
176.14
174.427
172.733
171.073
169.461
167.909
166.431
165.041
163.751
162.574
161.521
160.604
159.835
159.223
158.778
158.507
158.415
158.507
158.785
159.25
159.897
160.719
161.713
162.87
164.181
165.636
167.219
168.913
170.707
172.587
174.535
176.533
178.559
180.588
182.604
184.589
186.525
188.393
190.167
191.826
193.363
194.771
196.043
197.168
198.117
198.866
199.407
199.734
199.841
199.729
199.392
198.837
198.106
197.237
196.272
195.258
194.203
193.121
192.034
190.95
189.912
188.976
188.17
187.541
187.13
186.909
186.858
186.963
187.084
187.062
186.654
185.451
183.227
179.959
175.649
170.371
164.208
157.186
149.704
142.62
136.538
131.773
128.427
126.315
125.501
126.289
128.452
130.942
132.618
132.616
130.302
125.434
117.624
105.84
90.503
74.946
62.899
57.732
59.899
64.198
67.246
71.997
87.447
130.144
213.696
338.703
497.057
672.85
847.37
1010.893
1154.966
1267.354
1337.982
1351.111
1293.946
1167.448
977.307
740.463
482.43
227.636
2.755
-172.598
-289.488
-349.381
-362.685
-340.018
-293.75
-232.832
-166.14
-107.635
-64.066
-38.334
-27.058
-17.912
-5.174
11.763
30.049
41.827
44.686
40.712
32.34
23.803
17.387
13.267
12.067
13.714
17.541
23.096
29.766
36.734
43.48
49.48
53.964
56.624
57.556
56.978
55.362
53.196
50.76
48.374
46.419
45.072
44.418
44.48
45.127
46.257
47.828
49.761
51.993
54.482
57.162
59.973
62.867
65.773
68.643
71.455
74.187
76.842
79.43
81.965
84.486
87.041
89.664
92.385
95.226
98.205
101.352
104.7
108.276
112.107
116.214
120.612
125.318
130.341
135.682
141.339
147.3
153.55
160.076
166.865
173.898
181.158
188.621
196.263
204.055
211.969
219.971
228.024
236.089
244.125
252.088
259.937
267.628
275.116
282.356
289.305
295.919
302.155
307.971
313.325
318.178
322.492
326.231
329.363
331.856
333.682
334.818
335.242
334.937
333.89
332.091
329.532
326.213
322.134
317.301
311.724
305.414
298.389
290.669
282.278
273.245
263.601
253.379
242.615
231.349
219.622
207.475
194.953
182.101
168.964
155.59
142.026
128.32
114.518
100.67
86.823
73.024
59.313
45.732
32.318
19.11
6.153
-6.52
-18.885
-30.905
-42.536
-53.742
-64.482
-74.73
-84.505
-93.805
-102.594
-110.895
-118.755
-126.2
-133.296
-140.062
-146.391
-152.243
-157.693
-162.628
-166.785
-170.169
-172.855
-174.77
-176.394
-177.261
-175.436
-171.42
-166.945
-164.586
-170.569
-185.267
-202.178
-215.614
-215.762
-199.715
-177.594
-156.895
-146.601
-151.659
-163.145
-174.809
-182.304
-181.581
-177.313
-172.968
-169.055
-167.185
-166.146
-164.734
-163.468
-162.292
-161.239
-160.555
-160.104
-159.756
-159.542
-159.443
-159.396
-159.388
-159.452
-159.598
-159.842
-160.209
-160.683
-161.252
-161.923
-162.693
-163.554
-164.503
-165.533
-166.636
-167.809
-169.049
-170.352
-171.714
-173.131
-174.597
-176.107
-177.658
-179.245
-180.863
-182.507
-184.174
-185.858
-187.555
-189.261
-190.972
-192.684
-194.39
-196.087
-197.768
-199.43
-201.067
-202.675
-204.248
-205.782
-207.271
-208.711
-210.096
-211.422
-212.682
-213.871
-214.982
-216.012
-216.953
-217.803
-218.553
-219.201
-219.741
-220.17
-220.484
-220.68
-220.755
-220.706
-220.531
-220.232
-219.809
-219.263
-218.598
-217.819
-216.933
-215.949
-214.875
-213.722
-212.501
-211.226
-209.914
-208.578
-207.232
-205.891
-204.566
-203.274
-202.03
-200.848
-199.737
-198.707
-197.769
-196.938
-196.229
-195.647
-195.188
-194.846
-194.616
-194.501
-194.514
-194.656
-194.926
-195.324
-195.849
-196.505
-197.296
-198.207
-199.195
-200.213
-201.218
-202.187
-203.131
-204.058
-204.961
-205.814
-206.57
-207.189
-207.652
-207.939
-207.992
-207.741
-207.223
-206.575
-206.076
-206.111
-206.974
-208.847
-211.927
-216.343
-221.927
-228.327
-234.945
-240.858
-245.358
-247.929
-247.928
-245.033
-239.477
-231.758
-222.768
-213.793
-205.839
-199.955
-197.541
-199.622
-206.757
-219.079
-236.28
-257.023
-278.641
-297.811
-310.7
-316.369
-317.754
-317.369
-315.487
-304.698
-271.165
-203.6
-95.322
48.933
216.642
396.856
576.856
746.229
892.235
994.489
1034.431
999.04
887.362
712.394
494.476
256.229
18.234
-200.762
-384.881
-523.501
-614.48
-664.219
-683.228
-680.54
-658.049
-615.269
-554.938
-485.11
-419.363
-368.494
-335.114
-314.305
-298.672
-283.851
-270.125
-261.762
-261.38
-268.316
-280.04
-292.151
-301.512
-306.853
-307.758
-304.814
-298.826
-290.466
-280.572
-270.153
-260.216
-251.752
-245.292
-240.816
-238.069
-236.586
-235.852
-235.464
-234.984
-233.96
-232.158
-229.513
-226.033
-221.859
-217.115
-211.852
-206.157
-200.117
-193.778
-187.211
-180.478
-173.631
-166.752
-159.9
-153.109
-146.409
-139.809
-133.301
-126.878
-120.511
-114.159
-107.796
-101.406
-94.969
-88.478
-81.909
-75.235
-68.43
-61.468
-54.328
-46.994
-39.451
-31.687
-23.699
-15.491
-7.071
1.548
10.356
19.342
28.494
37.8
47.241
56.797
66.449
76.171
85.939
95.719
105.479
115.184
124.798
134.284
143.605
152.722
161.596
170.187
178.457
186.366
193.878
200.953
207.554
213.648
219.199
224.178
228.553
232.3
235.394
237.814
239.545
240.572
240.885
240.478
239.348
237.495
234.925
231.645
227.668
223.008
217.684
211.72
205.141
197.976
190.259
182.023
173.306
164.147
154.588
144.672
134.442
123.944
113.225
102.332
91.312
80.212
69.081
57.963
46.906
35.953
25.148
14.532
4.144
-5.98
-15.803
-25.295
-34.426
-43.17
-51.501
-59.4
-66.848
-73.83
-80.334
-86.351
-91.873
-96.899
-101.428
-105.46
-109.001
-112.057
-114.638
-116.755
-118.421
-119.652
-120.464
-120.876
-120.908
-120.581
-119.919
-118.944
-117.681
-116.154
-114.389
-112.41
-110.243
-107.912
-105.441
-102.853
-100.172
-97.42
-94.617
-91.785
-88.942
-86.106
-83.295
-80.523
-77.807
-75.157
-72.587
-70.107
-67.727
-65.455
-63.299
-61.265
-59.36
-57.586
-55.949
-54.451
-53.094
-51.878
-50.804
-49.87
-49.076
-48.42
-47.899
-47.511
-47.253
-47.122
-47.114
-47.226
-47.454
-47.795
-48.243
-48.796
-49.448
-50.196
-51.034
-51.96
-52.968
-54.055
-55.217
-56.449
-57.747
-59.106
-60.52
-61.984
-63.492
-65.037
-66.613
-68.212
-69.827
-71.451
-73.076
-74.694
-76.297
-77.877
-79.423
-80.926
-82.378
-83.766
-85.081
-86.312
-87.448
-88.48
-89.399
-90.195
-90.858
-91.379
-91.751
-91.965
-92.015
-91.892
-91.591
-91.106
-90.435
-89.576
-88.528
-87.295
-85.878
-84.287
-82.53
-80.615
-78.554
-76.36
-74.047
-71.633
-69.137
-66.574
-63.964
-61.324
-58.676
-56.042
-53.445
-50.902
-48.433
-46.054
-43.786
-41.651
-39.669
-37.843
-36.18
-34.685
-33.367
-32.249
-31.349
-30.671
-30.22
-30.001
-30.016
-30.272
-30.757
-31.433
-32.258
-33.186
-34.182
-35.237
-36.346
-37.495
-38.655
-39.778
-40.811
-41.723
-42.477
-43.035
-43.366
-43.436
-43.321
-43.205
-43.33
-43.998
-45.474
-47.918
-51.449
-56.158
-61.901
-68.397
-75.26
-81.862
-87.598
-91.984
-94.616
-95.239
-93.965
-91.089
-86.957
-82.262
-77.933
-75.051
-74.591
-77.507
-84.421
-95.433
-110.974
-129.96
-148.732
-163.646
-171.203
-170.736
-167.04
-162.651
-154.241
-132.886
-82.436
9.397
142.32
308.209
491.456
673.596
843.781
991.054
1101.042
1163.464
1165.419
1099.419
971.083
787.945
565.156
323.399
81.997
-134.388
-305.332
-421.208
-481.945
-499.838
-489.698
-461.777
-422.207
-374.045
-322.766
-275.843
-239.591
-215.59
-198.641
-183.384
-167.093
-150.181
-137.252
-130.886
-130.098
-133.383
-138.078
-141.983
-144.76
-146.055
-145.324
-142.804
-138.962
-134.007
-128.363
-122.522
-116.692
-111.355
-107.216
-104.42
-102.815
-102.175
-102.061
-102.159
-102.333
-102.318
-101.783
-100.562
-98.578
-95.872
-92.602
-88.864
-84.702
-80.18
-75.368
-70.35
-65.214
-60.041
-54.889
-49.796
-44.785
-39.873
-35.069
-30.372
-25.769
-21.225
-16.691
-12.138
-7.539
-2.875
1.867
6.716
11.703
16.855
22.196
27.745
33.516
39.523
45.779
52.285
59.041
66.036
73.257
80.692
88.33
96.158
104.158
112.312
120.596
128.987
137.46
145.983
154.522
163.042
171.503
179.866
188.092
196.139
203.965
211.528
218.787
225.699
232.224
238.321
243.95
249.073
253.654
257.658
261.054
263.811
265.905
267.31
268.009
267.983
267.22
265.711
263.45
260.434
256.666
252.152
246.901
240.925
234.242
226.872
218.839
210.172
200.899
191.056
180.677
169.801
158.467
146.718
134.597
122.148
109.416
96.448
83.289
69.987
56.586
43.133
29.673
16.248
2.901
-10.327
-23.398
-36.274
-48.922
-61.307
-73.401
-85.176
-96.606
-107.669
-118.346
-128.619
-138.475
-147.902
-156.891
-165.437
-173.535
-181.184
-188.386
-195.143
-201.461
-207.347
-212.81
-217.861
-222.512
-226.777
-230.672
-234.21
-237.41
-240.289
-242.865
-245.156
-247.181
-248.959
-250.509
-251.85
-252.999
-253.976
-254.798
-255.483
-256.046
-256.504
-256.87
-257.161
-257.388
-257.563
-257.699
-257.806
-257.894
-257.971
-258.047
-258.128
-258.222
-258.333
-258.469
-258.633
-258.829
-259.062
-259.334
-259.649
-260.01
-260.418
-260.877
-261.387
-261.951
-262.57
-263.244
-263.974
-264.761
-265.605
-266.506
-267.464
-268.479
-269.551
-270.68
-271.866
-273.108
-274.407
-275.76
-277.168
-278.628
-280.139
-281.698
-283.302
-284.949
-286.634
-288.356
-290.108
-291.888
-293.688
-295.504
-297.329
-299.155
-300.976
-302.781
-304.564
-306.313
-308.021
-309.68
-311.28
-312.812
-314.268
-315.639
-316.916
-318.092
-319.158
-320.106
-320.928
-321.619
-322.175
-322.591
-322.865
-322.997
-322.987
-322.84
-322.561
-322.156
-321.632
-320.999
-320.268
-319.455
-318.572
-317.631
-316.646
-315.631
-314.6
-313.573
-312.563
-311.583
-310.649
-309.773
-308.972
-308.262
-307.653
-307.141
-306.729
-306.415
-306.206
-306.123
-306.177
-306.375
-306.724
-307.229
-307.895
-308.725
-309.702
-310.782
-311.912
-313.051
-314.168
-315.264
-316.346
-317.396
-318.379
-319.244
-319.934
-320.416
-320.664
-320.618
-320.213
-319.496
-318.603
-317.802
-317.46
-317.839
-319.119
-321.524
-325.206
-330.069
-335.851
-342.071
-348.027
-353.246
-357.32
-359.639
-359.807
-357.829
-353.978
-348.89
-343.404
-338.056
-333.674
-331.627
-332.92
-338.333
-348.322
-362.569
-380.989
-402.446
-422.865
-437.769
-443.145
-437.826
-426.659
-413.219
-394.892
-363.321
-302.995
-200.995
-57.185
120.285
316.039
511.615
694.944
852.516
967.645
1024.094
1004.656
902.954
725.594
489.903
223.374
-45.92
-291.517
-492.445
-637.142
-724.5
-761.868
-759.859
-732.728
-690.216
-640.398
-594.391
-555.212
-524.361
-500.492
-474.538
-443.881
-409.978
-375.678
-348.095
-330.172
-320.589
-317.359
-317.36
-318.66
-320.891
-323.542
-326.005
-327.559
-327.441
-325.452
-321.707
-316.439
-309.966
-302.661
-294.992
-287.514
-280.796
-275.009
-269.995
-265.573
-261.486
-257.523
-253.534
-249.269
-244.419
-238.869
-232.649
-225.832
-218.568
-210.95
-203.012
-194.851
-186.584
-178.316
-170.149
-162.13
-154.255
-146.53
-138.958
-131.534
-124.257
-117.101
-110.015
-102.966
-95.931
-88.888
-81.828
-74.728
-67.559
-60.293
-52.906
-45.374
-37.685
-29.824
-21.777
-13.536
-5.097
3.537
12.355
21.35
30.512
39.834
49.303
58.906
68.625
78.44
88.331
98.271
108.234
118.187
128.095
137.923
147.635
157.192
166.557
175.688
184.549
193.098
201.297
209.107
216.49
223.409
229.828
235.714
241.034
245.759
249.863
253.321
256.115
258.227
259.645
260.359
260.365
259.661
258.25
256.138
253.335
249.856
245.718
240.942
235.554
229.584
223.062
216.026
208.512
200.562
192.218
183.525
174.531
165.281
155.826
146.215
136.499
126.727
116.951
107.22
97.585
88.092
78.79
69.723
60.933
52.462
44.347
36.624
29.325
22.48
16.116
10.258
4.926
0.139
-4.087
-7.741
-10.812
-13.296
-15.187
-16.487
-17.198
-17.325
-16.874
-15.857
-14.284
-12.171
-9.534
-6.392
-2.764
1.326
5.855
10.796
16.123
21.807
27.82
34.134
40.719
47.545
54.582
61.804
69.181
76.685
84.286
91.953
99.659
107.379
115.091
122.768
130.386
137.915
145.333
152.63
159.779
166.739
173.474
179.947
186.139
192.066
197.72
203.054
208.08
212.861
217.45
221.904
226.228
230.327
234.172
237.864
241.308
244.145
246.296
247.873
248.836
249.575
249.398
246.051
239.994
233.33
229.465
234.85
249.223
266.124
279.152
279.205
265.581
246.96
230.071
222.125
224.513
230.792
236.987
240.448
240.352
239.355
238.685
238.238
238.106
237.893
237.491
237.239
237.227
237.383
237.729
238.323
239.191
240.325
241.673
243.126
244.616
246.154
247.766
249.477
251.307
253.27
255.403
257.784
260.496
263.57
266.973
270.609
274.41
278.369
282.526
286.955
291.676
296.639
301.775
306.991
312.157
317.142
321.772
325.883
329.496
332.742
335.833
339.086
342.734
346.898
351.466
355.826
358.964
359.714
357.868
354.5
350.556
346.572
339.383
322.607
293.302
252.594
211.707
189.938
199.669
245.33
316.086
388.047
443.974
473.349
477.862
471.122
462.072
456.305
454.197
449.856
441.124
428.363
413.714
401.795
394.928
393.264
396.08
401.388
407.115
411.296
411.647
406.063
394.019
377.453
359.68
344.836
335.317
330.437
330.007
335.766
354.082
395.505
469.426
581.102
728.332
902.874
1092.381
1280.897
1450.415
1580.429
1650.656
1646.74
1565.485
1414.543
1212.864
985.502
754.387
541.356
361.91
222.394
126.59
69.882
45.038
49.079
78.181
129.317
196.684
267.479
328.936
372.823
398.564
413.95
427.034
441.885
457.685
468.911
472.537
469.715
463.212
457.937
456.37
456.972
459.755
465.529
475.898
495.256
522.28
550.109
572.169
580.216
573.521
559.772
545.301
536.931
536.572
539.409
542.618
544.245
543.699
543.325
544.209
546.338
549.896
554.593
560.339
567.458
576.017
585.886
596.947
608.991
621.774
635.121
648.88
662.927
677.212
691.709
706.396
721.261
736.267
751.362
766.496
781.591
796.583
811.438
826.109
840.536
854.668
868.467
881.919
895.044
907.851
920.293
932.325
944.108
955.849
967.469
978.939
990.216
1000.937
1011.902
1023.721
1035.015
1045.48
1052.927
1054.812
1053.476
1049.45
1045.147
1045.443
1050.816
1063.754
1084.677
1108.892
1129.659
1137.293
1125.37
1093.136
1049.409
1008.365
979.492
968.502
969.964
971.341
964.979
944.915
912.016
873.519
833.163
793.793
755.99
715.926
672.214
626.541
582.803
548.463
528.297
518.15
507.551
483.391
435.782
369.373
299.351
240.608
204.861
189.672
181.514
169.99
147.336
113.703
76.629
40.339
7.099
-22.723
-51.532
-80.132
-108.185
-135.605
-161.936
-187.016
-211.167
-234.652
-257.652
-280.275
-302.406
-323.822
-344.451
-364.211
-382.849
-399.906
-414.848
-427.478
-438.166
-447.568
-456.129
-464.193
-472.179
-480.757
-490.813
-502.813
-516.469
-531.04
-545.955
-560.875
-575.543
-589.586
-602.375
-613.534
-623.273
-632.205
-640.873
-649.613
-658.59
-667.906
-677.875
-688.795
-700.68
-713.353
-726.615
-740.283
-754.288
-768.719
-783.435
-798.03
-812.418
-826.698
-840.773
-854.87
-868.458
-879.799
-889.149
-898.131
-909.525
-928.122
-954.463
-984.299
-1011.056
-1026.94
-1029.135
-1021.633
-1013.189
-1011.952
-1022.191
-1043.232
-1067.9
-1090.564
-1108.226
-1119.134
-1126.947
-1134.331
-1141.959
-1151.2
-1160.879
-1169.845
-1178.226
-1185.509
-1191.494
-1196.247
-1199.199
-1199.619
-1197.359
-1192.523
-1185.11
-1175.718
-1164.084
-1148.243
-1128.442
-1106.476
-1084.996
-1070.38
-1064.148
-1060.844
-1053.504
-1029.719
-982.497
-917.473
-844.831
-781.692
-741.97
-725.728
-725.783
-728.465
-721.475
-702.507
-675.147
-646.27
-621.299
-601.007
-583.964
-568.263
-553.348
-539.709
-527.764
-517.763
-509.507
-502.768
-497.434
-493.155
-489.401
-485.67
-481.624
-477.156
-472.219
-466.612
-460.029
-452.256
-443.271
-433.328
-422.805
-411.93
-400.955
-390.356
-380.667
-372.184
-364.807
-357.824
-350.905
-344.845
-339.961
-335.159
-326.483
-308.253
-278.347
-240.456
-204.145
-180.126
-173.187
-180.199
-192.205
-200.859
-202.653
-199.114
-195.202
-194.535
-198.07
-205.467
-213.593
-217.402
-213.325
-198.586
-173.817
-145.179
-115.966
-83.116
-37.483
37.127
152.803
308.497
493.876
691.253
883.425
1061.759
1217.974
1341.133
1415.219
1419.12
1341.079
1181.727
957.878
700.816
441.703
210.102
25.481
-107.986
-194.147
-244.846
-271.2
-276.528
-261.134
-224.705
-173.246
-120.882
-79.715
-55.86
-45.359
-36.075
-20.863
1.085
25.429
44.034
53.9
56.602
54.495
51.182
48.886
48.291
50.399
55.674
63.855
74.58
87.426
101.778
116.966
132.241
146.637
159.572
171.011
181.185
190.565
199.667
208.947
218.847
229.781
242.011
255.704
270.77
286.773
303.529
321.049
339.179
358.134
377.194
394.359
409.974
425.698
444.331
471.194
505.791
542.584
576.048
598.395
609.179
615.686
623.555
638.904
662.725
689.531
715.963
739.697
760.053
779.254
798.29
817.083
835.699
853.79
871.264
888.404
905.279
921.815
937.995
953.806
969.216
984.194
998.694
1012.649
1026.029
1038.844
1051.09
1062.751
1073.817
1084.271
1094.098
1103.293
1111.846
1119.746
1126.986
1133.557
1139.452
1144.67
1149.209
1153.072
1156.257
1158.763
1160.586
1161.724
1162.183
1161.971
1161.105
1159.595
1157.453
1154.689
1151.315
1147.35
1142.815
1137.729
1132.106
1125.963
1119.326
1112.231
1104.731
1096.877
1088.712
1080.27
1071.57
1062.651
1053.566
1044.386
1035.2
1026.062
1016.997
1008.031
999.187
990.516
982.081
973.858
965.737
957.676
949.741
942.165
935.335
929.44
924.417
920.157
916.567
913.518
910.744
907.549
902.778
895.576
885.696
873.5
859.895
845.81
832.211
819.698
808.566
799.711
794.546
796.52
810.334
837.094
872.465
906.469
926.76
927.464
913.339
894.326
879.472
871.524
863.429
849.645
832.438
817.419
814.598
827.075
846.859
866.239
877.543
878.748
875.776
872.438
871.041
872.334
874.052
875.429
876.798
878.069
879.51
881.11
882.52
883.679
884.637
885.337
885.728
885.814
885.685
885.455
885.197
884.959
884.723
884.396
883.937
883.347
882.449
881.093
879.463
877.573
875.291
873.054
870.354
866.411
862.336
858.543
856.869
860.775
869.603
880.835
889.423
887.777
872.896
848.364
822.848
806.403
805.94
819.377
837.343
851.515
855.378
848.931
838.567
828.441
821.268
817.597
814.881
812.053
809.155
806.088
803.274
800.797
798.283
795.623
792.849
789.914
786.802
783.521
780.073
776.485
772.812
769.069
765.212
761.211
757.041
752.671
748.091
743.316
738.344
733.169
727.791
722.182
716.349
710.378
704.247
697.84
691.059
683.768
676.001
668.044
660.046
651.965
643.974
636.368
629.466
623.781
619.359
615.641
612.343
609.408
606.551
603.499
599.862
594.885
588.468
581.243
573.536
565.477
557.227
548.682
539.852
531.065
522.132
512.436
501.598
489.474
476.313
462.8
449.745
438.015
428.648
422.521
420.245
421.961
426.995
434.265
442.191
448.515
450.963
447.889
438.29
421.819
399.07
371.335
340.704
311.729
290.852
282.213
288.343
309.925
344.173
393.447
464.109
558.87
678.924
816.963
956.539
1086.185
1200.489
1298.129
1382.518
1449.376
1481.113
1457.335
1359.487
1179.532
931.199
643.398
352.828
97.584
-94.829
-213.509
-261.584
-252.474
-209.113
-153.006
-101.134
-69.407
-59.888
-66.393
-80.864
-88.928
-85.004
-72.513
-56.202
-43.888
-38.405
-36.957
-36.106
-33.672
-30.967
-28.759
-26.723
-23.708
-15.648
-4.431
2.171
-1.222
-21.557
-60.118
-107.888
-159.033
-207.881
-247.445
-279.769
-306.126
-323.872
-335.824
-340.696
-334.774
-323.544
-312.406
-307.042
-316.946
-341.371
-372.671
-405.028
-430.389
-446.524
-458.448
-469.745
-484.451
-504.319
-526.077
-543.478
-549.165
-539.749
-518.515
-498.286
-494.685
-516.111
-562.135
-618.571
-667.266
-697.523
-704.841
-697.303
-687.761
-683.537
-689.943
-705.092
-722.657
-739.916
-754.843
-767.35
-779.791
-792.733
-805.86
-819.147
-832.106
-844.642
-857.181
-869.885
-882.753
-895.867
-909.274
-922.981
-937.052
-951.509
-966.313
-981.485
-997.088
-1013.195
-1029.922
-1047.378
-1065.661
-1084.863
-1105.064
-1126.351
-1148.817
-1172.555
-1197.665
-1224.227
-1252.285
-1281.881
-1313.052
-1345.798
-1380.093
-1415.86
-1452.946
-1491.204
-1530.496
-1570.67
-1611.604
-1653.159
-1695.165
-1737.454
-1779.856
-1822.204
-1864.378
-1906.246
-1947.616
-1988.324
-2028.213
-2067.199
-2105.387
-2142.888
-2179.762
-2216.141
-2252.171
-2288.069
-2324.213
-2360.872
-2398.03
-2435.697
-2474.01
-2513.139
-2553.377
-2595.127
-2638.781
-2684.975
-2735.064
-2788.93
-2843.995
-2898.003
-2949.302
-3001.542
-3065.486
-3147.75
-3246.251
-3345.685
-3417.763
-3441.759
-3414.399
-3352.255
-3288.139
-3250.256
-3252.998
-3297.495
-3377.593
-3488.45
-3624.823
-3774.222
-3907.449
-3989.179
-3999.689
-3951.555
-3900.842
-3911.861
-4003.13
-4115.531
-4105.549
-3808.851
-3137.354
-2136.83
-994.152
35.075
744.989
1056.384
1032.523
831.14
613.314
478.206
447.387
481.21
520.741
524.229
473.468
374.625
249.222
118.181
