Name,Aleksandre Beruashvili
Date of Birth,"Dec 20, 1998"
Recorded Date,2024-05-31 15:06:10 +0400
Classification,Sinus Rhythm
Symptoms,
Software Version,1.90
Device,"Watch7,2"
Sample Rate,512 hertz


Lead,Lead I
Unit,µV

184.811
175.247
166.04
157.209
148.766
140.723
133.084
125.855
119.035
112.624
106.615
101.002
95.775
90.922
86.428
82.277
78.452
74.933
71.699
68.727
65.994
63.477
61.151
58.992
56.977
55.08
53.279
51.551
49.874
48.227
46.59
44.945
43.275
41.565
39.802
37.974
36.072
34.089
32.019
29.858
27.605
25.26
22.825
20.302
17.696
15.014
12.264
9.454
6.594
3.695
0.767
-2.177
-5.124
-8.062
-10.977
-13.857
-16.686
-19.454
-22.145
-24.746
-27.246
-29.632
-31.894
-34.02
-36
-37.825
-39.488
-40.983
-42.303
-43.446
-44.407
-45.187
-45.786
-46.207
-46.452
-46.529
-46.445
-46.209
-45.833
-45.328
-44.708
-43.987
-43.18
-42.301
-41.365
-40.386
-39.379
-38.358
-37.34
-36.342
-35.38
-34.47
-33.628
-32.873
-32.221
-31.688
-31.286
-31.021
-30.9
-30.929
-31.121
-31.49
-32.047
-32.791
-33.717
-34.821
-36.091
-37.511
-39.046
-40.636
-42.226
-43.761
-45.2
-46.515
-47.674
-48.638
-49.358
-49.784
-49.879
-49.633
-49.042
-48.103
-46.83
-45.261
-43.497
-41.726
-40.137
-38.913
-38.202
-38.102
-38.732
-40.259
-42.838
-46.603
-51.639
-57.926
-65.483
-74.474
-84.913
-96.601
-109.11
-121.646
-133.391
-143.744
-151.976
-157.069
-158.307
-155.436
-148.653
-138.947
-127.718
-116.255
-106.051
-99.341
-96.338
-94.227
-90.546
-82.28
-69.909
-60.822
-58.278
-57.878
-48.625
-9.722
75.819
209.099
382.407
578.178
772.161
947.885
1087.81
1172.043
1189.75
1132.83
1004.096
820.539
598.165
350.962
87.736
-187.77
-464.312
-721.646
-935.865
-1085.786
-1164.719
-1180.541
-1146.893
-1079.076
-987.745
-881.039
-770.716
-667.759
-580.116
-509.312
-447.911
-388.62
-328.615
-269.923
-219.896
-182.941
-158.406
-143.626
-133.669
-124.998
-116.507
-107.072
-95.797
-82.603
-67.686
-51.524
-35.147
-19.485
-5.203
6.757
15.44
20.59
22.439
21.435
18.336
13.865
8.616
3.36
-1.077
-4.168
-5.658
-5.474
-3.735
-0.567
3.949
9.648
16.315
23.763
31.813
40.322
49.197
58.308
67.489
76.581
85.408
93.799
101.66
108.933
115.59
121.652
127.153
132.134
136.667
140.835
144.712
148.368
151.862
155.24
158.563
161.894
165.304
168.866
172.628
176.617
180.852
185.335
190.062
195.024
200.199
205.552
211.055
216.683
222.413
228.226
234.097
239.997
245.892
251.748
257.531
263.209
268.749
274.117
279.28
284.206
288.866
293.234
297.28
300.975
304.29
307.195
309.662
311.668
313.187
314.199
314.683
314.625
314.011
312.831
311.079
308.749
305.841
302.353
298.291
293.659
288.468
282.728
276.452
269.657
262.362
254.588
246.357
237.694
228.626
219.182
209.393
199.288
188.902
178.268
167.42
156.394
145.225
133.948
122.598
111.211
99.821
88.461
77.164
65.962
54.884
43.96
33.217
22.68
12.375
2.324
-7.452
-16.933
-26.102
-34.943
-43.442
-51.585
-59.363
-66.767
-73.79
-80.426
-86.672
-92.527
-97.99
-103.065
-107.756
-112.068
-116.009
-119.589
-122.819
-125.711
-128.279
-130.536
-132.5
-134.186
-135.611
-136.793
-137.75
-138.5
-139.063
-139.456
-139.699
-139.809
-139.806
-139.706
-139.527
-139.286
-139
-138.684
-138.354
-138.024
-137.709
-137.421
-137.174
-136.979
-136.845
-136.782
-136.798
-136.899
-137.09
-137.374
-137.754
-138.23
-138.803
-139.471
-140.23
-141.078
-142.009
-143.017
-144.097
-145.24
-146.439
-147.685
-148.97
-150.286
-151.622
-152.971
-154.324
-155.672
-157.007
-158.319
-159.601
-160.845
-162.042
-163.184
-164.264
-165.276
-166.214
-167.071
-167.842
-168.525
-169.116
-169.612
-170.013
-170.319
-170.528
-170.644
-170.667
-170.601
-170.449
-170.214
-169.901
-169.514
-169.06
-168.543
-167.968
-167.341
-166.667
-165.949
-165.193
-164.402
-163.58
-162.728
-161.85
-160.948
-160.024
-159.079
-158.114
-157.13
-156.126
-155.103
-154.06
-152.995
-151.907
-150.792
-149.65
-148.478
-147.275
-146.037
-144.765
-143.458
-142.116
-140.741
-139.334
-137.895
-136.429
-134.938
-133.425
-131.892
-130.345
-128.785
-127.22
-125.656
-124.103
-122.568
-121.063
-119.598
-118.185
-116.837
-115.567
-114.384
-113.292
-112.299
-111.411
-110.64
-110.004
-109.513
-109.169
-108.974
-108.927
-109.02
-109.244
-109.572
-109.954
-110.343
-110.697
-110.98
-111.173
-111.246
-111.165
-110.895
-110.386
-109.61
-108.564
-107.237
-105.623
-103.741
-101.619
-99.346
-97.091
-95.003
-93.234
-91.932
-91.186
-91.126
-91.91
-93.665
-96.545
-100.665
-106.049
-112.758
-120.885
-130.407
-141.197
-152.867
-164.658
-175.758
-185.435
-192.939
-197.541
-198.536
-195.435
-188.455
-178.563
-167.228
-155.906
-145.511
-137.1
-132.065
-131.197
-134.076
-137.392
-134.777
-120.619
-92.451
-53.416
-9.345
37.284
89.384
160.668
265.65
410.868
595.374
798
987.983
1136.417
1213.295
1205.865
1119.778
967.844
773.496
556.264
320.38
66.561
-205.067
-485.768
-748.72
-962.339
-1102.646
-1163.944
-1159.492
-1110.613
-1034.822
-936.689
-816.975
-680.432
-539.393
-413.622
-316.292
-248.476
-200.677
-159.927
-119.8
-81.244
-50.05
-30.277
-20.908
-17.872
-15.882
-11.55
-3.629
7.799
21.739
37.325
53.649
69.543
83.986
95.951
104.414
109.151
110.513
108.987
105.402
100.64
95.46
90.787
87.51
86.088
86.706
89.381
93.946
100.272
108.253
117.665
128.246
139.771
152.026
164.87
178.168
191.717
205.282
218.618
231.536
243.938
255.773
267.008
277.635
287.665
297.145
306.156
314.779
323.083
331.13
338.97
346.663
354.288
361.926
369.658
377.544
385.612
393.877
402.344
411.009
419.855
428.855
437.965
447.148
456.373
465.614
474.845
484.035
493.146
502.144
510.99
519.648
528.086
536.267
544.159
551.731
558.952
565.794
572.233
578.242
583.792
588.854
593.4
597.405
600.843
603.693
605.932
607.543
608.512
608.828
608.483
607.472
605.794
603.449
600.442
596.78
592.474
587.535
581.98
575.827
569.099
561.817
554.01
545.704
536.929
527.719
518.107
508.128
497.818
487.214
476.354
465.278
454.023
442.631
431.139
419.587
408.014
396.458
384.957
373.546
362.261
351.135
340.198
329.482
319.014
308.819
298.922
289.344
280.104
271.22
262.707
254.578
246.842
239.508
232.582
226.067
219.964
214.274
208.992
204.115
199.635
195.545
191.836
188.495
185.51
182.867
180.551
178.546
176.834
175.397
174.216
173.272
172.545
172.014
171.66
171.461
171.398
171.45
171.598
171.824
172.108
172.434
172.783
173.142
173.494
173.826
174.125
174.38
174.58
174.715
174.778
174.762
174.659
174.465
174.176
173.789
173.299
172.707
172.011
171.21
170.305
169.298
168.19
166.985
165.686
164.296
162.82
161.262
159.628
157.923
156.151
154.317
152.428
150.487
148.5
146.471
144.403
142.3
140.167
138.005
135.818
133.606
131.371
129.115
126.837
124.538
122.217
119.875
117.511
115.123
112.713
110.278
107.818
105.33
102.815
100.269
97.691
95.08
92.432
89.745
87.018
84.249
81.436
78.579
75.676
72.728
69.734
66.697
63.617
60.497
57.34
54.148
50.927
47.68
44.414
41.136
37.852
34.571
31.3
28.048
24.825
21.64
18.503
15.421
12.406
9.468
6.616
3.862
1.215
-1.315
-3.717
-5.983
-8.104
-10.071
-11.878
-13.519
-14.992
-16.292
-17.422
-18.381
-19.175
-19.806
-20.283
-20.612
-20.802
-20.862
-20.801
-20.631
-20.364
-20.014
-19.597
-19.131
-18.636
-18.132
-17.64
-17.181
-16.775
-16.442
-16.194
-16.048
-16.017
-16.123
-16.394
-16.854
-17.52
-18.403
-19.51
-20.84
-22.385
-24.115
-25.982
-27.937
-29.934
-31.935
-33.921
-35.861
-37.726
-39.47
-41.034
-42.379
-43.48
-44.322
-44.912
-45.259
-45.406
-45.48
-45.656
-46.114
-47.03
-48.514
-50.667
-53.638
-57.567
-62.629
-68.99
-76.709
-85.863
-96.564
-108.808
-122.484
-137.261
-152.403
-167.075
-180.603
-192.254
-201.315
-207.232
-209.563
-208.527
-205.11
-200.531
-195.781
-191.473
-188.361
-187.326
-188.788
-192.011
-193.514
-187.785
-170.686
-140.316
-99.4
-53.439
-4.21
50.742
121.672
221.715
357.499
525.97
707.943
874.746
997.01
1053.108
1038.788
962.701
843.599
700.526
542.667
372.018
182.493
-31.019
-262.066
-494.453
-702.772
-863.372
-966.009
-1013.312
-1019.903
-1001.577
-966.805
-918.749
-855.712
-777.546
-689.269
-597.45
-508.944
-429.105
-360.335
-303.402
-258.476
-224.81
-200.765
-184.662
-174.711
-168.555
-164.189
-159.831
-153.666
-145.091
-134.445
-122.146
-108.927
-95.847
-83.834
-74.033
-67.683
-65.135
-66.134
-70.233
-76.722
-84.856
-93.915
-102.979
-111.057
-117.574
-122.281
-125.121
-126.217
-125.652
-123.487
-119.88
-115.06
-109.235
-102.587
-95.266
-87.368
-79.051
-70.535
-62.051
-53.836
-46.049
-38.771
-32.051
-25.909
-20.349
-15.348
-10.85
-6.772
-3.034
0.429
3.676
6.756
9.736
12.694
15.716
18.889
22.274
25.904
29.803
33.983
38.447
43.188
48.185
53.404
58.818
64.405
70.146
76.024
82.014
88.087
94.212
100.356
106.485
112.569
118.575
124.468
130.216
135.786
141.148
146.272
151.128
155.681
159.899
163.747
167.194
170.208
172.761
174.825
176.374
177.387
177.845
177.732
177.034
175.741
173.847
171.344
168.234
164.515
160.194
155.277
149.775
143.701
137.072
129.908
122.229
114.062
105.433
96.374
86.915
77.091
66.939
56.495
45.798
34.888
23.805
12.589
1.281
-10.079
-21.452
-32.797
-44.077
-55.256
-66.297
-77.167
-87.834
-98.267
-108.438
-118.319
-127.888
-137.121
-145.998
-154.502
-162.618
-170.332
-177.635
-184.517
-190.973
-197.001
-202.598
-207.767
-212.51
-216.835
-220.748
-224.26
-227.383
-230.129
-232.514
-234.554
-236.264
-237.662
-238.768
-239.6
-240.177
-240.519
-240.646
-240.578
-240.335
-239.937
-239.403
-238.75
-237.999
-237.164
-236.264
-235.314
-234.329
-233.322
-232.306
-231.295
-230.298
-229.327
-228.389
-227.493
-226.645
-225.851
-225.115
-224.44
-223.829
-223.284
-222.805
-222.394
-222.049
-221.77
-221.556
-221.405
-221.314
-221.281
-221.303
-221.375
-221.496
-221.661
-221.866
-222.11
-222.388
-222.698
-223.036
-223.401
-223.789
-224.199
-224.627
-225.072
-225.531
-226.005
-226.49
-226.986
-227.494
-228.013
-228.543
-229.083
-229.634
-230.196
-230.77
-231.354
-231.949
-232.555
-233.171
-233.797
-234.434
-235.08
-235.734
-236.395
-237.062
-237.732
-238.403
-239.071
-239.731
-240.379
-241.011
-241.622
-242.207
-242.761
-243.276
-243.748
-244.169
-244.532
-244.83
-245.055
-245.198
-245.25
-245.203
-245.048
-244.779
-244.386
-243.861
-243.197
-242.387
-241.424
-240.304
-239.02
-237.567
-235.942
-234.144
-232.17
-230.024
-227.706
-225.22
-222.576
-219.782
-216.848
-213.786
-210.608
-207.326
-203.955
-200.508
-196.999
-193.44
-189.846
-186.232
-182.618
-179.023
-175.468
-171.972
-168.554
-165.232
-162.025
-158.949
-156.009
-153.211
-150.563
-148.077
-145.778
-143.684
-141.802
-140.133
-138.681
-137.434
-136.378
-135.481
-134.685
-133.938
-133.196
-132.424
-131.61
-130.738
-129.774
-128.678
-127.399
-125.893
-124.148
-122.16
-119.904
-117.393
-114.685
-111.888
-109.182
-106.739
-104.658
-103.028
-101.943
-101.51
-101.898
-103.268
-105.697
-109.28
-114.156
-120.381
-127.968
-136.699
-145.91
-154.825
-162.749
-168.927
-172.615
-173.296
-170.599
-164.747
-157.019
-148.875
-141.43
-135.997
-133.942
-136.147
-143.182
-153.132
-160.867
-161.768
-153.079
-136.266
-115.289
-89.613
-52.44
10.048
109.879
246.855
409.503
575.87
726.351
854.721
960.245
1043.951
1100.077
1109.731
1055.931
932.15
744.086
511.329
253.299
-17.36
-288.757
-549.206
-779.803
-956.574
-1065.667
-1105.036
-1087.685
-1036.616
-967.387
-888.31
-800.798
-701.075
-591.818
-479.868
-372.438
-277.657
-199.378
-137.877
-92.837
-62.116
-42.748
-31.994
-26.793
-24.176
-21.914
-18.141
-11.268
-0.922
12.31
27.53
43.457
58.753
72.373
83.229
90.31
93.42
92.947
89.473
83.893
77.122
69.948
63.302
58.042
54.599
53.136
53.644
55.956
59.936
65.468
72.324
80.251
89.03
98.462
108.413
118.748
129.257
139.707
149.853
159.512
168.592
177.043
184.84
191.978
198.477
204.389
209.804
214.808
219.472
223.862
228.031
232.047
235.994
239.958
244.033
248.285
252.751
257.458
262.421
267.645
273.126
278.844
284.765
290.863
297.118
303.512
310.029
316.648
323.342
330.082
336.838
343.58
350.279
356.905
363.426
369.814
376.039
382.072
387.888
393.457
398.748
403.729
408.367
412.629
416.484
419.902
422.854
425.311
427.25
428.648
429.486
429.748
429.419
428.487
426.944
424.782
421.998
418.592
414.564
409.92
404.669
398.822
392.391
385.395
377.854
369.792
361.233
352.206
342.742
332.873
322.634
312.061
301.192
290.068
278.727
267.211
255.561
243.819
232.028
220.228
208.461
196.764
185.177
173.737
162.479
151.437
140.645
130.131
119.924
110.051
100.536
91.4
82.662
74.339
66.442
58.983
51.97
45.407
39.296
33.637
28.425
23.657
19.322
15.411
11.911
8.805
6.079
3.712
1.686
-0.021
-1.432
-2.569
-3.457
-4.118
-4.578
-4.86
-4.989
-4.99
-4.885
-4.698
-4.451
-4.165
-3.861
-3.558
-3.273
-3.023
-2.822
-2.684
-2.619
-2.639
-2.751
-2.962
-3.278
-3.702
-4.236
-4.881
-5.637
-6.501
-7.47
-8.539
-9.705
-10.96
-12.298
-13.711
-15.193
-16.735
-18.329
-19.966
-21.638
-23.336
-25.051
-26.776
-28.501
-30.22
-31.925
-33.61
-35.268
-36.895
-38.485
-40.035
-41.541
-43.001
-44.412
-45.772
-47.081
-48.339
-49.545
-50.7
-51.806
-52.865
-53.879
-54.851
-55.784
-56.681
-57.545
-58.381
-59.19
-59.978
-60.746
-61.5
-62.243
-62.978
-63.709
-64.439
-65.173
-65.913
-66.662
-67.423
-68.198
-68.989
-69.799
-70.628
-71.479
-72.352
-73.249
-74.171
-75.118
-76.09
-77.088
-78.11
-79.155
-80.222
-81.31
-82.414
-83.532
-84.662
-85.8
-86.944
-88.09
-89.237
-90.378
-91.511
-92.632
-93.735
-94.817
-95.87
-96.89
-97.871
-98.807
-99.694
-100.524
-101.293
-101.993
-102.621
-103.169
-103.632
-104.005
-104.282
-104.459
-104.532
-104.499
-104.359
-104.112
-103.759
-103.304
-102.751
-102.107
-101.377
-100.57
-99.694
-98.756
-97.767
-96.736
-95.673
-94.586
-93.487
-92.389
-91.305
-90.249
-89.235
-88.279
-87.396
-86.6
-85.906
-85.323
-84.853
-84.502
-84.274
-84.177
-84.227
-84.431
-84.79
-85.304
-85.97
-86.777
-87.713
-88.741
-89.808
-90.869
-91.881
-92.818
-93.668
-94.412
-95.029
-95.487
-95.748
-95.785
-95.584
-95.129
-94.403
-93.404
-92.16
-90.767
-89.372
-88.121
-87.131
-86.468
-86.189
-86.38
-87.143
-88.616
-90.906
-94.043
-98.092
-103.201
-109.468
-116.872
-125.078
-133.312
-140.713
-146.602
-150.31
-151.122
-148.441
-141.962
-132.284
-121.073
-110.214
-101.211
-95.389
-94.172
-98.777
-109.748
-124.449
-137.162
-142.488
-136.602
-120.661
-98.382
-68.596
-25.751
40.438
140.78
275.93
438.602
615.516
788.405
942.39
1061.549
1129.592
1135.658
1071.007
938.011
747.357
508.778
237.962
-49.327
-335.171
-591.224
-793.922
-932.224
-1007.676
-1037.601
-1040.604
-1020.776
-973.583
-893.5
-781.608
-657.095
-544.916
-460.498
-407.164
-372.488
-340.915
-305.114
-265.538
-229.352
-201.959
-183.688
-171.253
-159.326
-144.895
-127.141
-106.511
-84.634
-62.647
-41.164
-21.175
-3.48
11.195
21.849
28.277
30.887
30.172
26.893
21.772
15.403
8.575
2.231
-2.968
-6.627
-8.562
-8.829
-7.466
-4.474
0.039
5.905
12.923
20.879
29.597
38.935
48.757
58.886
69.104
79.174
88.872
98.047
106.619
114.547
121.819
128.439
134.443
139.901
144.91
149.567
153.952
158.137
162.181
166.158
170.154
174.26
178.566
183.134
188.002
193.196
198.733
204.619
210.85
217.406
224.256
231.371
238.729
246.31
254.095
262.056
270.163
278.379
286.669
294.994
303.319
311.602
319.804
327.885
335.803
343.521
351.001
358.203
365.086
371.608
377.727
383.402
388.595
393.268
397.386
400.917
403.831
406.105
407.716
408.645
408.878
408.403
407.212
405.3
402.665
399.31
395.242
390.469
385.006
378.869
372.08
364.663
356.646
348.06
338.939
329.32
319.243
308.748
297.878
286.677
275.192
263.469
251.554
239.495
227.338
215.131
202.919
190.746
178.655
166.688
154.882
143.276
131.904
120.799
109.991
99.509
89.378
79.622
70.261
61.314
52.795
44.717
37.089
29.917
23.205
16.953
11.159
5.82
0.927
-3.528
-7.556
-11.172
-14.39
-17.226
-19.7
-21.83
-23.637
-25.143
-26.368
-27.335
-28.065
-28.581
-28.903
-29.054
-29.053
-28.922
-28.681
-28.35
-27.946
-27.489
-26.996
-26.484
-25.969
-25.465
-24.985
-24.543
-24.15
-23.816
-23.551
-23.363
-23.258
-23.243
-23.322
-23.5
-23.778
-24.159
-24.644
-25.232
-25.923
-26.716
-27.609
-28.6
-29.687
-30.867
-32.136
-33.493
-34.933
-36.454
-38.05
-39.719
-41.457
-43.257
-45.117
-47.031
-48.993
-50.998
-53.041
-55.115
-57.214
-59.333
-61.464
-63.603
-65.743
-67.878
-70.001
-72.109
-74.195
-76.253
-78.28
-80.269
-82.218
-84.121
-85.975
-87.777
-89.522
-91.207
-92.83
-94.387
-95.877
-97.295
-98.641
-99.911
-101.105
-102.22
-103.258
-104.217
-105.098
-105.902
-106.632
-107.29
-107.879
-108.403
-108.865
-109.271
-109.625
-109.932
-110.198
-110.429
-110.629
-110.805
-110.963
-111.107
-111.245
-111.379
-111.516
-111.658
-111.81
-111.974
-112.154
-112.352
-112.57
-112.811
-113.077
-113.369
-113.689
-114.037
-114.414
-114.818
-115.248
-115.703
-116.177
-116.668
-117.171
-117.68
-118.19
-118.694
-119.186
-119.656
-120.098
-120.503
-120.863
-121.171
-121.416
-121.593
-121.694
-121.714
-121.649
-121.495
-121.25
-120.916
-120.494
-119.986
-119.396
-118.728
-117.987
-117.178
-116.307
-115.377
-114.394
-113.366
-112.3
-111.204
-110.09
-108.97
-107.857
-106.763
-105.703
-104.691
-103.737
-102.849
-102.033
-101.296
-100.649
-100.113
-99.702
-99.425
-99.285
-99.283
-99.416
-99.675
-100.031
-100.435
-100.84
-101.201
-101.486
-101.679
-101.76
-101.705
-101.475
-101.023
-100.322
-99.36
-98.133
-96.649
-94.913
-92.96
-90.905
-88.918
-87.167
-85.813
-84.95
-84.658
-85.066
-86.31
-88.556
-91.969
-96.638
-102.653
-110.151
-119.18
-129.669
-141.324
-153.46
-165.214
-175.756
-184.233
-189.844
-192.012
-190.443
-185.441
-178.091
-169.911
-162.6
-157.739
-156.546
-160.001
-168.505
-180.854
-194.733
-205.683
-206.693
-193.29
-162.71
-114.318
-53.6
18.495
106.596
214.103
350.021
515.606
696.019
874.379
1024.251
1118.334
1144.779
1096.967
980.087
810.574
601.374
362.412
100.427
-177.907
-458.792
-716.94
-923.545
-1061.55
-1128.51
-1138.997
-1116.912
-1076.766
-1023.946
-957.81
-873.795
-774.837
-669.213
-565.005
-470.865
-391.601
-328.366
-281.223
-248.442
-227.058
-214.099
-206.804
-202.032
-197.143
-190.055
-178.968
-163.528
-144.61
-123.36
-101.052
-79.19
-59.053
-41.897
-29.028
-20.799
-16.83
-16.491
-18.927
-23.314
-28.905
-34.817
-40.076
-44.03
-46.373
-47
-45.997
-43.432
-39.337
-33.821
-27.07
-19.282
-10.647
-1.341
8.52
18.815
29.353
39.934
50.344
60.366
69.872
78.797
87.092
94.742
101.76
108.17
114.036
119.455
124.51
129.279
133.832
138.223
142.529
146.833
151.221
155.783
160.578
165.64
170.995
176.66
182.636
188.92
195.494
202.32
209.373
216.63
224.067
231.665
239.397
247.23
255.131
263.061
270.986
278.871
286.679
294.374
301.918
309.277
316.415
323.302
329.903
336.181
342.1
347.623
352.715
357.341
361.471
365.074
368.123
370.595
372.468
373.728
374.361
374.357
373.709
372.412
370.468
367.877
364.647
360.787
356.308
351.225
345.557
339.323
332.547
325.255
317.473
309.233
300.564
291.502
282.08
272.335
262.304
252.026
241.539
230.884
220.099
209.224
198.298
187.36
176.446
165.593
154.834
144.203
133.731
123.447
113.379
103.552
93.991
84.716
75.748
67.104
58.801
50.851
43.267
36.059
29.233
22.797
16.754
11.106
5.855
0.998
-3.467
-7.545
-11.241
-14.564
-17.524
-20.129
-22.393
-24.328
-25.948
-27.267
-28.299
-29.061
-29.568
-29.836
-29.88
-29.718
-29.365
-28.837
-28.149
-27.317
-26.357
-25.282
-24.107
-22.845
-21.51
-20.114
-18.671
-17.19
-15.685
-14.166
-12.643
-11.126
-9.624
-8.145
-6.697
-5.288
-3.923
-2.607
-1.347
-0.145
0.993
2.066
3.07
4.002
4.862
5.648
6.358
6.992
7.549
8.029
8.431
8.755
9
9.168
9.256
9.267
9.198
9.052
8.827
8.524
8.145
7.689
7.158
6.552
5.872
5.121
4.298
3.406
2.444
1.416
0.32
-0.84
-2.064
-3.35
-4.698
-6.106
-7.571
-9.094
-10.671
-12.302
-13.983
-15.713
-17.489
-19.309
-21.168
-23.064
-24.992
-26.949
-28.93
-30.93
-32.946
-34.972
-37.004
-39.038
-41.07
-43.094
-45.107
-47.105
-49.083
-51.038
-52.966
-54.863
-56.726
-58.55
-60.334
-62.073
-63.765
-65.406
-66.994
-68.525
-69.997
-71.407
-72.751
-74.029
-75.236
-76.371
-77.432
-78.418
-79.327
-80.16
-80.914
-81.591
-82.189
-82.708
-83.147
-83.507
-83.787
-83.985
-84.101
-84.133
-84.081
-83.943
-83.719
-83.407
-83.004
-82.51
-81.923
-81.242
-80.467
-79.595
-78.629
-77.569
-76.417
-75.177
-73.852
-72.449
-70.973
-69.434
-67.84
-66.199
-64.521
-62.817
-61.097
-59.371
-57.649
-55.94
-54.256
-52.61
-51.016
-49.487
-48.04
-46.689
-45.45
-44.338
-43.37
-42.557
-41.907
-41.425
-41.119
-41.002
-41.093
-41.405
-41.942
-42.704
-43.686
-44.88
-46.272
-47.829
-49.498
-51.229
-52.977
-54.712
-56.42
-58.082
-59.672
-61.15
-62.461
-63.57
-64.464
-65.133
-65.576
-65.793
-65.808
-65.72
-65.689
-65.871
-66.405
-67.362
-68.78
-70.743
-73.348
-76.736
-81.045
-86.308
-92.557
-99.894
-108.367
-117.947
-128.4
-139.043
-149.039
-157.724
-164.402
-168.34
-168.997
-165.985
-159.481
-150.683
-141.073
-131.767
-124.072
-119.628
-119.726
-125.124
-134.029
-141.303
-141.68
-132.351
-115.509
-95.441
-73.815
-45.825
4.031
90.8
223.336
401.483
604.647
805.893
977.29
1089.939
1133.78
1110.389
1030.452
915.161
776.119
616.231
430.912
211.881
-35.897
-294.097
-532.396
-719.331
-839.632
-894.124
-899.051
-876.415
-838.416
-789.46
-728.36
-651.387
-561.905
-467.211
-374.32
-290.937
-221.27
-166.48
-127.153
-102.073
-88.72
-84.676
-87.552
-94.402
-102.626
-109.853
-113.717
-113.319
-109.04
-101.563
-91.847
-81.147
-70.551
-61.32
-54.888
-51.72
-51.559
-53.883
-57.853
-62.706
-67.828
-72.46
-75.806
-77.44
-77.215
-75.166
-71.512
-66.413
-59.995
-52.454
-44.013
-34.903
-25.342
-15.542
-5.694
4.032
13.477
22.509
31.038
39.004
46.381
53.181
59.435
65.176
70.455
75.321
79.822
84.031
88.026
91.896
95.74
99.636
103.643
107.812
112.18
116.769
121.596
126.66
131.946
137.446
143.152
149.058
155.161
161.451
167.91
174.521
181.261
188.106
195.038
202.033
209.066
216.115
223.153
230.159
237.11
243.979
250.736
257.348
263.78
269.997
275.964
281.645
287.004
292.006
296.618
300.808
304.549
307.812
310.571
312.803
314.487
315.603
316.137
316.075
315.406
314.124
312.225
309.707
306.576
302.835
298.495
293.568
288.07
282.018
275.434
268.343
260.77
252.745
244.299
235.465
226.279
216.778
207
196.984
186.772
176.403
165.919
155.36
144.767
134.18
123.637
113.178
102.838
92.653
82.657
72.883
63.361
54.118
45.18
36.571
28.312
20.42
12.911
5.798
-0.909
-7.201
-13.075
-18.527
-23.557
-28.168
-32.363
-36.15
-39.538
-42.537
-45.16
-47.422
-49.339
-50.929
-52.211
-53.205
-53.932
-54.413
-54.671
-54.729
-54.61
-54.337
-53.933
-53.421
-52.823
-52.16
-51.455
-50.726
-49.993
-49.273
-48.583
-47.938
-47.352
-46.838
-46.408
-46.071
-45.836
-45.712
-45.704
-45.818
-46.057
-46.423
-46.918
-47.542
-48.294
-49.171
-50.171
-51.289
-52.52
-53.86
-55.3
-56.835
-58.457
-60.157
-61.927
-63.758
-65.642
-67.568
-69.53
-71.517
-73.522
-75.537
-77.554
-79.564
-81.562
-83.54
-85.491
-87.41
-89.291
-91.128
-92.917
-94.654
-96.336
-97.96
-99.523
-101.024
-102.462
-103.836
-105.145
-106.391
-107.575
-108.697
-109.759
-110.765
-111.718
-112.62
-113.475
-114.287
-115.058
-115.794
-116.498
-117.172
-117.821
-118.448
-119.056
-119.65
-120.232
-120.805
-121.373
-121.938
-122.502
-123.067
-123.634
-124.204
-124.776
-125.349
-125.924
-126.499
-127.072
-127.64
-128.201
-128.75
-129.285
-129.799
-130.288
-130.744
-131.161
-131.533
-131.853
-132.115
-132.312
-132.437
-132.485
-132.45
-132.327
-132.111
-131.797
-131.38
-130.857
-130.225
-129.482
-128.628
-127.661
-126.584
-125.402
-124.121
-122.747
-121.289
-119.757
-118.16
-116.509
-114.815
-113.088
-111.338
-109.577
-107.815
-106.068
-104.352
-102.683
-101.077
-99.549
-98.113
-96.785
-95.578
-94.493
-93.534
-92.703
-92.011
-91.474
-91.112
-90.929
-90.93
-91.121
-91.496
-92.042
-92.735
-93.521
-94.349
-95.17
-95.941
-96.635
-97.227
-97.672
-97.92
-97.919
-97.611
-96.977
-96.003
-94.654
-92.934
-90.898
-88.638
-86.324
-84.133
-82.177
-80.588
-79.516
-79.101
-79.546
-81.05
-83.71
-87.668
-93.097
-100.039
-108.468
-118.141
-128.415
-138.539
-147.844
-155.559
-160.84
-163.089
-162.019
-157.956
-152.046
-145.787
-140.332
-136.543
-135.843
-139.405
-146.995
-157.517
-167.202
-169.245
-160.1
-138.192
-102.527
-58.322
-5.974
61.412
149.195
269.511
428.492
612.832
803.146
967.71
1071.827
1102.795
1058.886
953.664
815.283
658.259
490.15
310.211
104.654
-126.025
-368.371
-599.519
-785.15
-905.196
-958.699
-957.751
-924.289
-873.946
-810.948
-734.045
-644.294
-546.823
-452.283
-372.816
-310.868
-265.883
-233.983
-208.075
-188.652
-175.754
-167.79
-164.634
-161.457
-153.794
-140.878
-122.528
-100.119
-75.81
-50.645
-25.65
-2.659
16.639
31.361
41.311
46.987
49.291
48.938
46.503
42.783
38.694
34.95
32.074
30.381
29.924
30.724
32.841
36.256
40.904
46.712
53.556
61.299
69.837
79.04
88.787
98.977
109.458
120.05
130.57
140.826
150.687
160.093
168.992
177.353
185.173
192.469
199.294
205.732
211.851
217.711
223.359
228.835
234.195
239.508
244.842
250.27
255.842
261.586
267.525
273.675
280.037
286.604
293.355
300.253
307.271
314.384
321.57
328.809
336.073
343.331
350.553
357.703
364.749
371.658
378.396
384.928
391.222
397.246
402.97
408.366
413.407
418.059
422.292
426.075
429.376
432.169
434.426
436.12
437.229
437.734
437.619
436.87
435.477
433.435
430.738
427.387
423.385
418.736
413.451
407.54
401.02
393.907
386.223
377.99
369.234
359.983
350.267
340.117
329.568
318.654
307.414
295.885
284.106
272.119
259.964
247.684
235.319
222.912
210.505
198.14
185.855
173.689
161.681
149.866
138.278
126.948
115.907
105.181
94.796
84.775
75.138
65.902
57.083
48.692
40.74
33.233
26.177
19.574
13.425
7.726
2.474
-2.34
-6.723
-10.687
-14.245
-17.414
-20.21
-22.652
-24.76
-26.555
-28.061
-29.3
-30.297
-31.076
-31.662
-32.08
-32.355
-32.512
-32.574
-32.564
-32.506
-32.42
-32.327
-32.245
-32.193
-32.185
-32.239
-32.366
-32.579
-32.89
-33.308
-33.84
-34.493
-35.271
-36.179
-37.218
-38.389
-39.689
-41.118
-42.67
-44.342
-46.128
-48.021
-50.014
-52.098
-54.263
-56.501
-58.8
-61.151
-63.542
-65.963
-68.402
-70.85
-73.297
-75.733
-78.148
-80.536
-82.886
-85.193
-87.449
-89.647
-91.784
-93.853
-95.85
-97.771
-99.615
-101.38
-103.063
-104.666
-106.187
-107.629
-108.992
-110.279
-111.491
-112.632
-113.705
-114.713
-115.659
-116.55
-117.388
-118.178
-118.925
-119.633
-120.307
-120.95
-121.567
-122.16
-122.733
-123.288
-123.827
-124.351
-124.863
-125.361
-125.845
-126.317
-126.774
-127.215
-127.639
-128.043
-128.423
-128.777
-129.101
-129.391
-129.642
-129.85
-130.01
-130.117
-130.167
-130.155
-130.077
-129.928
-129.703
-129.401
-129.018
-128.551
-127.998
-127.356
-126.627
-125.811
-124.909
-123.922
-122.854
-121.711
-120.501
-119.234
-117.919
-116.568
-115.192
-113.805
-112.42
-111.051
-109.706
-108.395
-107.129
-105.92
-104.783
-103.733
-102.783
-101.945
-101.23
-100.648
-100.208
-99.915
-99.764
-99.752
-99.875
-100.136
-100.554
-101.143
-101.906
-102.846
-103.96
-105.233
-106.649
-108.179
-109.768
-111.364
-112.92
-114.39
-115.755
-116.985
-118.038
-118.869
-119.413
-119.603
-119.408
-118.788
-117.721
-116.241
-114.396
-112.275
-110.031
-107.79
-105.688
-103.903
-102.588
-101.917
-102.091
-103.247
-105.581
-109.371
-114.7
-121.514
-129.575
-138.26
-146.919
-155.014
-161.789
-166.452
-168.614
-168.118
-165.413
-161.867
-158.802
-157.35
-158.679
-163.462
-171.845
-183.733
-197.837
-211.343
-219.838
-217.444
-199.134
-162.341
-109.745
-46.962
22.648
99.294
190.956
306.365
447.57
609.405
775.183
925.664
1041.694
1105.015
1104.792
1031.728
886.966
681.466
428.133
148.34
-141.026
-424.352
-680.04
-891.428
-1041.661
-1123.092
-1143.618
-1117.272
-1063.35
-995.386
-918.606
-834.595
-741.888
-643.44
-545.723
-455.453
-379.563
-321.026
-278.741
-250.366
-232.407
-221.383
-214.665
-209.219
-201.94
-190.531
-174.057
-152.94
-128.421
-102.006
-75.105
-49.236
-26.107
-7.374
6.106
14.398
18.021
17.802
14.601
9.154
2.378
-4.608
-11.007
-16.325
-20.222
-22.645
-23.58
-22.939
-20.776
-17.228
-12.395
-6.433
0.508
8.333
16.888
26.009
35.548
45.288
55.021
64.565
73.721
82.365
90.439
97.892
104.723
110.967
116.666
121.895
126.751
131.312
135.654
139.851
143.963
148.069
152.254
156.592
161.168
166.038
171.234
176.781
182.689
188.952
195.561
202.489
209.7
217.162
224.847
232.726
240.773
248.957
257.24
265.581
273.937
282.265
290.521
298.661
306.638
314.408
321.926
329.15
336.038
342.548
348.637
354.26
359.374
363.937
367.911
371.258
373.945
375.94
377.218
377.756
377.538
376.551
374.786
372.236
368.9
364.782
359.888
354.23
347.821
340.681
332.831
324.299
315.113
305.309
294.922
283.993
272.564
260.68
248.387
235.736
222.775
209.556
196.131
182.552
168.872
155.143
141.417
127.744
114.172
100.749
87.518
74.523
61.801
49.391
37.324
25.633
14.345
3.484
-6.928
-16.871
-26.331
-35.295
-43.755
-51.704
-59.139
-66.061
-72.473
-78.382
-83.794
-88.722
-93.179
-97.18
-100.744
-103.889
-106.638
-109.014
-111.04
-112.741
-114.144
-115.274
-116.159
-116.823
-117.294
-117.597
-117.756
-117.796
-117.74
-117.609
-117.426
-117.211
-116.981
-116.756
-116.55
-116.378
-116.255
-116.192
-116.199
-116.286
-116.46
-116.729
-117.098
-117.57
-118.149
-118.835
-119.629
-120.53
-121.535
-122.642
-123.846
-125.143
-126.525
-127.988
-129.524
-131.125
-132.785
-134.495
-136.247
-138.034
-139.847
-141.679
-143.522
-145.368
-147.211
-149.042
-150.857
-152.648
-154.409
-156.136
-157.822
-159.463
-161.055
-162.593
-164.073
-165.493
-166.848
-168.138
-169.359
-170.51
-171.591
-172.601
-173.541
-174.411
-175.213
-175.949
-176.622
-177.235
-177.79
-178.291
-178.743
-179.149
-179.514
-179.843
-180.141
-180.413
-180.663
-180.898
-181.123
-181.341
-181.56
-181.782
-182.014
-182.26
-182.526
-182.815
-183.132
-183.481
-183.868
-184.296
-184.768
-185.288
-185.857
-186.478
-187.151
-187.877
-188.655
-189.483
-190.358
-191.28
-192.243
-193.245
-194.281
-195.345
-196.432
-197.535
-198.648
-199.763
-200.872
-201.965
-203.035
-204.073
-205.07
-206.018
-206.905
-207.723
-208.462
-209.114
-209.668
-210.115
-210.444
-210.648
-210.717
-210.644
-210.423
-210.048
-209.514
-208.819
-207.963
-206.949
-205.778
-204.454
-202.982
-201.365
-199.612
-197.726
-195.712
-193.571
-191.307
-188.926
-186.435
-183.842
-181.155
-178.383
-175.534
-172.615
-169.639
-166.606
-163.513
-160.357
-157.138
-153.86
-150.545
-147.203
-143.841
-140.466
-137.084
-133.689
-130.269
-126.788
-123.188
-119.42
-115.432
-111.19
-106.683
-101.883
-96.759
-91.286
-85.419
-79.141
-72.456
-65.347
-57.803
-49.871
-41.641
-33.268
-24.991
-16.992
-9.417
-2.431
3.811
9.103
13.235
16.065
17.515
17.485
15.791
12.304
7.067
0.49
-6.633
-13.446
-19.202
-23.105
-24.195
-21.768
-15.588
-6.255
4.581
15.304
24.481
30.329
31.17
26.002
16.077
5.474
-0.916
0.559
9.22
22.687
42.838
75.531
132.452
225.492
355.796
516.832
694.869
869.643
1026.155
1152.013
1232.446
1259.951
1228.907
1133.554
980.342
776.471
526.691
245.542
-52.407
-348.213
-610.296
-813.774
-946.43
-1007.693
-1015.698
-993.857
-955.042
-904.907
-842.12
-761.372
-665.446
-562.19
-459.213
-364.766
-283.318
-215.645
-161.712
-120.533
-89.941
-67.412
-50.837
-37.884
-26.437
-15.094
-2.48
12.502
29.718
48.359
67.687
86.651
104.228
119.729
132.24
140.876
145.561
146.72
144.894
140.881
135.488
129.381
123.424
118.538
115.227
113.725
114.104
116.234
120.013
125.377
132.141
140.061
148.928
158.52
168.677
179.292
190.173
201.104
211.861
222.195
231.955
241.068
249.478
257.169
264.159
270.473
276.181
281.384
286.167
290.614
294.798
298.775
302.623
306.43
310.285
314.283
318.49
322.939
327.659
332.662
337.946
343.505
349.316
355.338
361.542
367.901
374.39
380.986
387.663
394.384
401.113
407.814
414.447
420.977
427.366
433.578
439.574
445.319
450.78
455.923
460.716
465.121
469.103
472.625
475.654
478.156
480.102
481.463
482.213
482.331
481.8
480.605
478.737
476.187
472.951
469.03
464.427
459.147
453.201
446.601
439.363
431.506
423.051
414.023
404.45
394.36
383.786
372.764
361.328
349.517
337.372
324.932
312.24
299.339
286.271
273.08
259.809
246.5
233.196
219.939
206.767
193.719
180.833
168.142
155.681
143.478
131.564
119.964
108.702
97.801
87.279
77.154
67.441
58.154
49.302
40.893
32.934
25.428
18.375
11.775
5.625
-0.081
-5.351
-10.192
-14.617
-18.637
-22.266
-25.52
-28.413
-30.964
-33.19
-35.111
-36.745
-38.112
-39.233
-40.127
-40.815
-41.316
-41.651
-41.84
-41.901
-41.853
-41.715
-41.505
-41.241
-40.939
-40.614
-40.284
-39.961
-39.66
-39.393
-39.171
-39.006
-38.905
-38.879
-38.933
-39.076
-39.312
-39.646
-40.082
-40.624
-41.272
-42.029
-42.894
-43.868
-44.948
-46.133
-47.42
-48.806
-50.287
-51.858
-53.515
-55.251
-57.061
-58.939
-60.877
-62.868
-64.903
-66.977
-69.079
-71.203
-73.339
-75.481
-77.62
-79.748
-81.858
-83.942
-85.994
-88.006
-89.971
-91.884
-93.738
-95.527
-97.246
-98.891
-100.458
-101.942
-103.342
-104.656
-105.881
-107.018
-108.067
-109.027
-109.9
-110.689
-111.395
-112.023
-112.576
-113.059
-113.477
-113.836
-114.142
-114.401
-114.619
-114.802
-114.958
-115.092
-115.21
-115.319
-115.426
-115.535
-115.655
-115.791
-115.948
-116.133
-116.349
-116.602
-116.895
-117.23
-117.61
-118.034
-118.504
-119.018
-119.575
-120.173
-120.808
-121.477
-122.174
-122.893
-123.63
-124.374
-125.12
-125.857
-126.578
-127.273
-127.934
-128.552
-129.12
-129.627
-130.068
-130.434
-130.719
-130.915
-131.015
-131.012
-130.902
-130.68
-130.341
-129.884
-129.305
-128.608
-127.796
-126.876
-125.854
-124.739
-123.539
-122.267
-120.933
-119.549
-118.122
-116.664
-115.184
-113.697
-112.221
-110.771
-109.363
-108.01
-106.726
-105.522
-104.414
-103.41
-102.505
-101.704
-101.009
-100.433
-100.005
-99.746
-99.663
-99.764
-100.048
-100.506
-101.134
-101.902
-102.758
-103.651
-104.53
-105.353
-106.105
-106.753
-107.251
-107.547
-107.562
-107.233
-106.535
-105.443
-103.952
-102.093
-99.914
-97.505
-95.021
-92.621
-90.478
-88.777
-87.682
-87.372
-88.01
-89.789
-92.993
-97.778
-104.154
-111.974
-120.806
-130.167
-139.651
-148.657
-156.397
-162.331
-166.067
-167.679
-168.089
-168.141
-168.531
-170.179
-173.741
-179.533
-187.738
-197.485
-206.453
-212.252
-212.131
-202.793
-181.636
-146.225
-94.034
-24.016
63.119
166.278
281.225
400.587
518.03
626
720.832
804.308
872.596
918.693
928.399
881.855
773.552
607.942
400.852
175.398
-59.546
-295.779
-524.455
-735.01
-901.207
-1007.073
-1050.018
-1035.656
-987.728
-921.11
-840.8
-754.865
-662.004
-567.646
-483.405
-409.39
-347.927
-298.656
-255.455
-220.915
-196.06
-178.73
-169.641
-165.362
-161.848
-158.368
-153.83
-147.568
-140.631
-133.394
-125.307
-116.891
-108.971
-101.658
-95.378
-90.391
-85.705
-81.01
-77.026
-73.689
-70.707
-68.018
-65.117
-61.829
-58.834
-56.125
-52.954
-49.002
-43.99
-37.758
-30.606
-22.596
-13.434
-3.233
7.583
18.684
29.643
40.19
50.329
59.981
69.024
77.442
85.247
92.479
99.249
105.629
111.641
117.324
122.71
127.852
132.833
137.739
142.659
147.665
152.801
158.104
163.601
169.303
175.225
181.363
187.695
194.203
200.873
207.694
214.66
221.757
228.956
236.227
243.537
250.858
258.165
265.43
272.621
279.708
286.66
293.449
300.049
306.431
312.561
318.402
323.921
329.083
333.856
338.206
342.102
345.512
348.409
350.769
352.569
353.789
354.412
354.421
353.807
352.561
350.678
348.154
344.991
341.192
336.764
331.717
326.065
319.822
313.008
305.642
297.749
289.355
280.489
271.18
261.462
251.368
240.934
230.196
219.194
207.966
196.551
184.99
173.323
161.591
149.834
138.091
126.4
114.799
103.324
92.009
80.888
69.991
59.349
48.988
38.936
29.216
19.849
10.855
2.251
-5.948
-13.73
-21.084
-28.003
-34.481
-40.516
-46.106
-51.254
-55.961
-60.233
-64.079
-67.506
-70.527
-73.153
-75.398
-77.28
-78.815
-80.021
-80.919
-81.527
-81.868
-81.963
-81.833
-81.502
-80.99
-80.32
-79.515
-78.596
-77.586
-76.504
-75.373
-74.211
-73.037
-71.869
-70.724
-69.618
-68.564
-67.576
-66.666
-65.845
-65.123
-64.51
-64.011
-63.633
-63.381
-63.259
-63.27
-63.414
-63.691
-64.1
-64.639
-65.305
-66.094
-67
-68.018
-69.142
-70.365
-71.678
-73.075
-74.546
-76.082
-77.676
-79.317
-80.998
-82.709
-84.443
-86.192
-87.947
-89.702
-91.45
-93.185
-94.902
-96.594
-98.257
-99.887
-101.481
-103.035
-104.548
-106.018
-107.443
-108.824
-110.16
-111.452
-112.703
-113.914
-115.088
-116.229
-117.339
-118.423
-119.486
-120.531
-121.564
-122.588
-123.609
-124.63
-125.657
-126.691
-127.738
-128.799
-129.878
-130.976
-132.094
-133.232
-134.391
-135.57
-136.766
-137.977
-139.201
-140.432
-141.667
-142.9
-144.126
-145.339
-146.531
-147.694
-148.82
-149.9
-150.923
-151.879
-152.757
-153.546
-154.235
-154.812
-155.268
-155.591
-155.77
-155.797
-155.661
-155.356
-154.873
-154.206
-153.348
-152.298
-151.051
-149.608
-147.969
-146.135
-144.113
-141.91
-139.536
-137.003
-134.322
-131.506
-128.571
-125.533
-122.407
-119.207
-115.948
-112.646
-109.32
-105.99
-102.682
-99.415
-96.211
-93.09
-90.069
-87.171
-84.41
-81.793
-79.326
-77.02
-74.89
-72.965
-71.273
-69.825
-68.63
-67.692
-67
-66.544
-66.296
-66.203
-66.216
-66.288
-66.38
-66.476
-66.556
-66.578
-66.497
-66.242
-65.746
-64.983
-63.923
-62.545
-60.885
-58.997
-56.982
-55.007
-53.213
-51.729
-50.718
-50.314
-50.67
-51.975
-54.35
-57.973
-63.113
-69.858
-78.172
-87.834
-98.231
-108.716
-118.761
-127.585
-134.321
-138.46
-139.683
-138.316
-135.636
-132.835
-130.865
-130.841
-133.648
-139.672
-148.94
-160.199
-170.498
-176.7
-175.635
-163.642
-137.298
-93.632
-29.712
54.557
155.229
268.238
388.704
513.443
644.37
779.299
909.152
1019.01
1084.286
1084.498
1015.064
881.944
703.913
502.164
283.04
48.866
-196.236
-444.106
-669.94
-846.101
-959.273
-1009.068
-1009.458
-980.406
-930.923
-860.686
-771.128
-666.006
-555.828
-457.52
-377.567
-313.534
-261.383
-212.836
-166.341
-127.411
-97.782
-78.566
-68.674
-62.542
-57.012
-50.809
-42.341
-31.85
-20.136
-7.329
5.906
18.407
29.436
38.162
43.534
45.418
44.223
40.343
34.538
27.647
20.336
13.484
8.009
4.373
2.782
3.293
5.759
10.084
16.198
23.893
32.914
43.024
53.992
65.66
77.88
90.433
103.066
115.508
127.543
139.051
149.96
160.223
169.815
178.729
186.992
194.676
201.854
208.592
214.951
220.976
226.73
232.293
237.755
243.208
248.721
254.332
260.066
265.94
271.961
278.128
284.424
290.818
297.287
303.815
310.387
316.995
323.619
330.239
336.829
343.365
349.823
356.183
362.421
368.512
374.436
380.169
385.691
390.983
396.02
400.776
405.222
409.329
413.067
416.408
419.323
421.782
423.759
425.232
426.177
426.575
426.408
425.662
424.322
422.378
419.823
416.65
412.858
408.446
403.419
397.782
391.543
384.716
377.313
369.353
360.856
351.845
342.344
332.383
321.99
311.199
300.045
288.565
276.796
264.779
252.556
240.167
227.655
215.065
202.438
189.817
177.244
164.758
152.4
140.207
128.216
116.462
104.977
93.791
82.934
72.432
62.307
52.582
43.274
34.399
25.971
18
10.494
3.458
-3.105
-9.195
-14.815
-19.969
-24.666
-28.914
-32.728
-36.12
-39.107
-41.707
-43.939
-45.824
-47.384
-48.641
-49.619
-50.341
-50.831
-51.113
-51.212
-51.15
-50.95
-50.636
-50.228
-49.747
-49.211
-48.641
-48.051
-47.459
-46.878
-46.323
-45.804
-45.334
-44.92
-44.573
-44.297
-44.101
-43.987
-43.958
-44.017
-44.165
-44.402
-44.726
-45.135
-45.628
-46.201
-46.85
-47.571
-48.36
-49.212
-50.122
-51.084
-52.094
-53.146
-54.236
-55.36
-56.514
-57.694
-58.897
-60.12
-61.361
-62.619
-63.891
-65.176
-66.472
-67.78
-69.099
-70.427
-71.766
-73.116
-74.477
-75.85
-77.235
-78.634
-80.046
-81.473
-82.915
-84.374
-85.848
-87.339
-88.847
-90.373
-91.916
-93.476
-95.052
-96.645
-98.252
-99.872
-101.504
-103.144
-104.791
-106.442
-108.093
-109.743
-111.387
-113.021
-114.643
-116.249
-117.833
-119.393
-120.923
-122.418
-123.875
-125.289
-126.655
-127.97
-129.23
-130.43
-131.566
-132.636
-133.635
-134.561
-135.409
-136.177
-136.86
-137.458
-137.968
-138.388
-138.716
-138.95
-139.09
-139.136
-139.087
-138.944
-138.707
-138.377
-137.957
-137.449
-136.855
-136.181
-135.431
-134.615
-133.74
-132.818
-131.857
-130.868
-129.862
-128.85
-127.843
-126.847
-125.87
-124.92
-124.006
-123.139
-122.332
-121.596
-120.937
-120.366
-119.889
-119.515
-119.248
-119.085
-119.021
-119.058
-119.2
-119.466
-119.872
-120.421
-121.114
-121.946
-122.901
-123.962
-125.102
-126.266
-127.404
-128.467
-129.411
-130.216
-130.861
-131.303
-131.494
-131.369
-130.861
-129.946
-128.609
-126.839
-124.677
-122.181
-119.45
-116.647
-113.925
-111.424
-109.322
-107.763
-106.899
-106.926
-107.98
-110.256
-114.027
-119.357
-126.181
-134.307
-143.2
-152.327
-161.264
-169.277
-175.557
-179.705
-181.421
-180.879
-179.096
-176.845
-174.727
-173.738
-174.479
-176.951
-181.28
-186.92
-191.933
-194.449
-190.86
-175.689
-145.281
-98.055
-37.31
30.302
100.272
172.35
255.233
359.254
489.572
645.397
809.771
957.888
1065.263
1105.549
1066.832
952.335
773.514
553.152
311.508
59.328
-195.715
-446.189
-679.919
-876.493
-1015.864
-1090.362
-1102.573
-1066.846
-1002.172
-918.968
-827.646
-733.066
-637.162
-547.631
-464.558
-389.167
-324.284
-267.324
-221.403
-188.361
-165.881
-153.41
-147.416
-143.368
-139.117
-132.519
-122.008
-107.671
-90.068
-69.918
-48.406
-26.971
-6.84
10.729
24.467
34.028
39.66
41.778
41.093
38.341
34.161
29.326
24.68
20.729
17.762
15.973
15.362
15.933
17.705
20.583
24.426
29.121
34.553
40.611
47.228
54.302
61.706
69.336
77.068
84.782
92.367
99.694
106.673
113.259
119.443
125.249
130.714
135.882
140.813
145.587
150.273
154.935
159.629
164.396
169.286
174.353
179.652
185.247
191.179
197.47
204.129
211.154
218.533
226.249
234.275
242.565
251.078
259.778
268.629
277.6
286.651
295.739
304.818
313.838
322.75
331.51
340.068
348.376
356.387
364.056
371.34
378.201
384.598
390.493
395.844
400.615
404.77
408.276
411.105
413.228
414.623
415.271
415.157
414.273
412.612
410.173
406.959
402.974
398.231
392.743
386.528
379.606
372.002
363.744
354.862
345.391
335.365
324.824
313.809
302.361
290.525
278.347
265.872
253.148
240.222
227.143
213.956
200.711
187.454
174.23
161.084
148.06
135.199
122.54
110.121
97.975
86.135
74.631
63.488
52.73
42.38
32.454
22.969
13.938
5.371
-2.723
-10.34
-17.477
-24.134
-30.312
-36.016
-41.252
-46.029
-50.356
-54.247
-57.714
-60.774
-63.443
-65.74
-67.684
-69.297
-70.598
-71.612
-72.359
-72.863
-73.147
-73.234
-73.146
-72.905
-72.533
-72.05
-71.478
-70.835
-70.14
-69.412
-68.666
-67.92
-67.188
-66.485
-65.825
-65.219
-64.68
-64.217
-63.841
-63.56
-63.381
-63.311
-63.355
-63.518
-63.802
-64.209
-64.74
-65.394
-66.17
-67.066
-68.077
-69.202
-70.433
-71.766
-73.195
-74.713
-76.314
-77.99
-79.733
-81.537
-83.393
-85.292
-87.227
-89.188
-91.168
-93.157
-95.145
-97.125
-99.087
-101.021
-102.92
-104.774
-106.576
-108.317
-109.99
-111.588
-113.104
-114.534
-115.871
-117.113
-118.255
-119.296
-120.234
-121.068
-121.798
-122.425
-122.951
-123.377
-123.706
-123.942
-124.088
-124.15
-124.131
-124.038
-123.878
-123.657
-123.383
-123.063
-122.707
-122.323
-121.921
-121.51
-121.098
-120.696
-120.314
-119.96
-119.643
-119.373
-119.156
-119
-118.913
-118.898
-118.962
-119.106
-119.335
-119.649
-120.05
-120.538
-121.112
-121.771
-122.512
-123.333
-124.228
-125.193
-126.223
-127.311
-128.447
-129.624
-130.832
-132.062
-133.302
-134.542
-135.767
-136.968
-138.132
-139.247
-140.3
-141.28
-142.176
-142.977
-143.674
-144.26
-144.728
-145.073
-145.293
-145.389
-145.359
-145.208
-144.938
-144.554
-144.061
-143.465
-142.772
-141.987
-141.119
-140.178
-139.173
-138.12
-137.03
-135.921
-134.806
-133.702
-132.622
-131.581
-130.586
-129.644
-128.765
-127.958
-127.246
-126.641
-126.149
-125.776
-125.519
-125.374
-125.328
-125.354
-125.406
-125.441
-125.42
-125.313
-125.11
-124.79
-124.332
-123.705
-122.86
-121.771
-120.426
-118.814
-116.941
-114.815
-112.463
-109.988
-107.536
-105.246
-103.255
-101.64
-100.461
-99.826
-99.847
-100.664
-102.439
-105.236
-109.126
-114.238
-120.591
-128.125
-136.609
-145.388
-153.68
-160.85
-166.201
-169.09
-169.092
-165.798
-159.348
-150.846
-141.597
-132.829
-125.629
-120.883
-119.557
-122.521
-129.553
-137.352
-140.689
-135.041
-117.562
-90.412
-58.048
-20
28.501
97.291
197.347
329.558
486.385
654.149
815.32
956.77
1065.377
1127.026
1129.049
1059.631
919.082
717.658
469.975
196.492
-88.682
-371.455
-630.771
-847.829
-1003.51
-1089.01
-1112.781
-1090.967
-1043.299
-982.745
-913.661
-836.161
-748.094
-652.531
-555.201
-461.541
-377.891
-306.912
-248.005
-200.546
-162.952
-133.061
-109.847
-92.21
-78.291
-66.785
-56.789
-47.117
-36.983
-26.421
-15.401
-4.102
6.743
16.577
24.92
31.043
34.361
34.887
32.854
28.73
23.308
17.312
11.44
6.465
3.052
1.555
2.095
4.645
9.03
15.09
22.655
31.477
41.288
51.85
62.98
74.501
86.226
97.931
109.36
120.328
130.723
140.483
149.589
158.038
165.853
173.089
179.838
186.191
192.227
198.022
203.634
209.136
214.617
220.17
225.889
231.846
238.082
244.626
251.492
258.682
266.189
273.987
282.038
290.309
298.773
307.403
316.178
325.067
334.033
343.039
352.045
361.012
369.902
378.673
387.287
395.703
403.884
411.793
419.396
426.653
433.526
439.975
445.957
451.435
456.371
460.728
464.472
467.572
470.001
471.736
472.758
473.05
472.6
471.399
469.441
466.725
463.253
459.031
454.068
448.376
441.974
434.88
427.119
418.716
409.703
400.11
389.974
379.331
368.222
356.688
344.772
332.518
319.974
307.184
294.198
281.061
267.821
254.526
241.221
227.951
214.759
201.687
188.774
176.056
163.57
151.348
139.42
127.813
116.554
105.663
95.162
85.066
75.391
66.147
57.343
48.984
41.075
33.616
26.605
20.039
13.911
8.213
2.935
-1.936
-6.412
-10.511
-14.248
-17.643
-20.712
-23.478
-25.958
-28.175
-30.15
-31.901
-33.451
-34.82
-36.028
-37.094
-38.037
-38.875
-39.626
-40.306
-40.931
-41.514
-42.07
-42.61
-43.147
-43.689
-44.246
-44.827
-45.438
-46.086
-46.776
-47.51
-48.293
-49.127
-50.012
-50.95
-51.939
-52.98
-54.07
-55.208
-56.392
-57.619
-58.887
-60.192
-61.531
-62.902
-64.299
-65.72
-67.163
-68.623
-70.097
-71.583
-73.078
-74.58
-76.084
-77.59
-79.095
-80.595
-82.089
-83.575
-85.051
-86.515
-87.964
-89.399
-90.818
-92.219
-93.601
-94.964
-96.306
-97.626
-98.923
-100.196
-101.445
-102.668
-103.864
-105.033
-106.175
-107.288
-108.372
-109.425
-110.447
-111.437
-112.392
-113.314
-114.199
-115.049
-115.863
-116.64
-117.382
-118.09
-118.763
-119.404
-120.013
-120.593
-121.144
-121.669
-122.17
-122.649
-123.109
-123.553
-123.984
-124.405
-124.818
-125.227
-125.633
-126.039
-126.447
-126.858
-127.273
-127.692
-128.118
-128.551
-128.992
-129.441
-129.9
-130.367
-130.843
-131.324
-131.811
-132.298
-132.783
-133.26
-133.725
-134.173
-134.598
-134.993
-135.352
-135.667
-135.93
-136.133
-136.268
-136.326
-136.298
-136.177
-135.955
-135.626
-135.185
-134.63
-133.958
-133.169
-132.265
-131.249
-130.124
-128.894
-127.565
-126.142
-124.631
-123.037
-121.365
-119.625
-117.824
-115.974
-114.089
-112.182
-110.27
-108.37
-106.497
-104.668
-102.897
-101.191
-99.559
-98.013
-96.567
-95.248
-94.076
-93.064
-92.224
-91.562
-91.076
-90.757
-90.574
-90.473
-90.408
-90.332
-90.213
-90.039
-89.789
-89.441
-88.96
-88.303
-87.437
-86.345
-85.015
-83.438
-81.629
-79.637
-77.585
-75.654
-74.025
-72.852
-72.228
-72.235
-72.99
-74.608
-77.246
-81.043
-86.049
-92.359
-100.143
-109.442
-120.139
-131.834
-143.661
-154.675
-164.16
-171.314
-175.294
-175.591
-172.037
-165.249
-156.847
-148.641
-141.883
-137.666
-137.372
-141.632
-150.083
-161.299
-170.447
-172.066
-163.818
-142.285
-106.781
-58.002
10.299
100.545
213.976
351.427
500.798
649.657
785.435
893.129
967.207
1003.472
997.317
947.672
853.395
717.945
549.444
357.118
148.38
-74.813
-308.891
-544.193
-764.514
-944.104
-1059.865
-1101.745
-1068.842
-975.066
-845.624
-703.618
-574.033
-474.755
-407.494
-366.907
-339.316
-311.366
-279.604
-246.28
-218.331
-200.539
-191.839
-187.951
-182.615
-171.906
-155.429
-134.192
-110.054
-84.702
-59.193
-34.847
-13.311
4.006
16.39
23.896
27.105
26.853
23.923
19.068
13.174
7.206
1.962
-2.064
-4.636
-5.721
-5.344
-3.482
-0.147
4.57
10.544
17.615
25.609
34.383
43.797
53.674
63.827
74.022
83.988
93.532
102.534
110.915
118.654
125.732
132.128
137.876
143.051
147.74
152.03
155.995
159.69
163.191
166.586
169.975
173.466
177.135
181.028
185.182
189.62
194.358
199.409
204.766
210.401
216.292
222.421
228.772
235.336
242.092
249.011
256.061
263.211
270.431
277.69
284.957
292.195
299.37
306.446
313.391
320.171
326.75
333.089
339.149
344.887
350.265
355.244
359.786
363.854
367.413
370.432
372.882
374.737
375.976
376.577
376.523
375.803
374.406
372.325
369.557
366.103
361.967
357.154
351.677
345.549
338.785
331.407
323.438
314.904
305.836
296.264
286.225
275.755
264.892
253.678
242.156
230.367
218.356
206.168
193.847
181.44
168.991
156.545
144.145
131.834
119.652
107.64
95.835
84.273
72.986
62.007
51.364
41.084
31.192
21.709
12.655
4.046
-4.104
-11.785
-18.987
-25.707
-31.941
-37.689
-42.956
-47.745
-52.064
-55.923
-59.334
-62.311
-64.867
-67.022
-68.793
-70.2
-71.266
-72.012
-72.463
-72.641
-72.572
-72.28
-71.79
-71.125
-70.311
-69.37
-68.326
-67.202
-66.018
-64.797
-63.558
-62.319
-61.099
-59.912
-58.775
-57.7
-56.699
-55.782
-54.959
-54.237
-53.623
-53.124
-52.742
-52.483
-52.348
-52.338
-52.455
-52.696
-53.061
-53.546
-54.148
-54.862
-55.685
-56.61
-57.632
-58.745
-59.943
-61.218
-62.565
-63.975
-65.443
-66.961
-68.522
-70.119
-71.745
-73.396
-75.064
-76.744
-78.432
-80.122
-81.81
-83.492
-85.164
-86.821
-88.459
-90.076
-91.666
-93.227
-94.756
-96.25
-97.707
-99.124
-100.499
-101.832
-103.12
-104.364
-105.561
-106.713
-107.817
-108.876
-109.888
-110.856
-111.779
-112.66
-113.498
-114.297
-115.058
-115.783
-116.473
-117.131
-117.757
-118.353
-118.922
-119.464
-119.982
-120.476
-120.949
-121.402
-121.837
-122.257
-122.663
-123.056
-123.438
-123.809
-124.17
-124.521
-124.861
-125.19
-125.505
-125.806
-126.09
-126.356
-126.6
-126.819
-127.01
-127.17
-127.293
-127.378
-127.418
-127.41
-127.35
-127.236
-127.064
-126.833
-126.542
-126.188
-125.775
-125.304
-124.779
-124.202
-123.577
-122.909
-122.202
-121.462
-120.691
-119.894
-119.075
-118.239
-117.396
-116.554
-115.725
-114.918
-114.144
-113.413
-112.734
-112.115
-111.558
-111.063
-110.633
-110.275
-110.004
-109.839
-109.787
-109.857
-110.053
-110.37
-110.796
-111.308
-111.862
-112.416
-112.932
-113.376
-113.731
-113.979
-114.094
-114.042
-113.781
-113.266
-112.466
-111.363
-109.931
-108.178
-106.156
-103.958
-101.729
-99.611
-97.711
-96.143
-95.04
-94.538
-94.804
-95.997
-98.216
-101.627
-106.459
-112.813
-120.673
-129.752
-139.397
-148.916
-157.682
-164.942
-169.902
-171.994
-170.944
-167.284
-162.379
-157.645
-154.345
-153.588
-156.264
-162.921
-173.396
-185.928
-197.337
-203.952
-201.869
-187.479
-157.562
-109.327
-40.89
47.527
153.708
274.341
402.818
529.993
647.489
746.633
823.784
881.948
919.243
929.695
901.957
819.05
675.678
478.84
243.566
-10.096
-267.124
-514.677
-739.508
-924.527
-1050.194
-1107.399
-1095.072
-1022.343
-911.296
-780.031
-647.033
-532.523
-442.07
-377.49
-334.997
-299.816
-265.968
-232.38
-200.164
-177.315
-166.184
-163.617
-165.492
-165.549
-160.093
-149.116
-133.489
-114.606
-93.836
-72.204
-51.092
-32.164
-16.908
-5.978
0.821
4.033
4.401
2.619
-0.676
-4.654
-8.355
-11.085
-12.504
-12.493
-11.133
-8.501
-4.58
0.571
6.812
13.992
21.941
30.506
39.596
49.124
58.962
68.956
78.9
88.58
97.859
106.662
114.949
122.705
129.913
136.572
142.729
148.467
153.866
159
163.926
168.683
173.332
177.945
182.604
187.395
192.377
197.582
203.038
208.763
214.77
221.064
227.633
234.445
241.476
248.707
256.122
263.705
271.433
279.276
287.201
295.177
303.17
311.147
319.072
326.905
334.611
342.15
349.486
356.584
363.408
369.917
376.071
381.832
387.16
392.019
396.373
400.186
403.427
406.068
408.082
409.447
410.145
410.159
409.476
408.087
405.988
403.176
399.652
395.42
390.491
384.876
378.59
371.652
364.086
355.917
347.176
337.894
328.108
317.857
307.181
296.122
284.726
273.039
261.106
248.975
236.693
224.31
211.871
199.424
187.016
174.69
162.491
150.46
138.636
127.056
115.757
104.77
94.126
83.851
73.973
64.512
55.489
46.92
38.819
31.197
24.062
17.417
11.263
5.599
0.419
-4.284
-8.522
-12.307
-15.655
-18.584
-21.113
-23.262
-25.055
-26.515
-27.666
-28.533
-29.144
-29.522
-29.696
-29.689
-29.529
-29.239
-28.844
-28.368
-27.834
-27.262
-26.674
-26.089
-25.527
-25.004
-24.536
-24.137
-23.821
-23.599
-23.48
-23.471
-23.579
-23.808
-24.161
-24.638
-25.24
-25.965
-26.81
-27.771
-28.842
-30.019
-31.294
-32.66
-34.108
-35.631
-37.219
-38.864
-40.558
-42.291
-44.055
-45.843
-47.645
-49.455
-51.265
-53.069
-54.858
-56.628
-58.371
-60.083
-61.758
-63.391
-64.98
-66.521
-68.011
-69.449
-70.833
-72.163
-73.438
-74.66
-75.83
-76.949
-78.02
-79.045
-80.028
-80.972
-81.883
-82.764
-83.62
-84.455
-85.273
-86.078
-86.876
-87.668
-88.459
-89.25
-90.046
-90.848
-91.659
-92.481
-93.315
-94.162
-95.024
-95.9
-96.79
-97.694
-98.611
-99.538
-100.475
-101.418
-102.367
-103.317
-104.266
-105.21
-106.144
-107.064
-107.964
-108.838
-109.679
-110.479
-111.233
-111.932
-112.571
-113.141
-113.636
-114.049
-114.376
-114.61
-114.747
-114.783
-114.713
-114.536
-114.25
-113.854
-113.348
-112.735
-112.018
-111.202
-110.295
-109.305
-108.24
-107.111
-105.926
-104.697
-103.435
-102.149
-100.849
-99.544
-98.246
-96.968
-95.725
-94.533
-93.406
-92.359
-91.405
-90.56
-89.831
-89.222
-88.733
-88.367
-88.13
-88.037
-88.1
-88.323
-88.709
-89.259
-89.967
-90.818
-91.783
-92.811
-93.853
-94.865
-95.812
-96.672
-97.422
-98.032
-98.463
-98.672
-98.62
-98.283
-97.643
-96.672
-95.37
-93.784
-92.007
-90.193
-88.497
-87.032
-85.904
-85.228
-85.134
-85.796
-87.376
-89.964
-93.658
-98.622
-104.965
-112.728
-121.719
-131.332
-140.822
-149.514
-156.694
-161.58
-163.543
-162.154
-157.632
-151.232
-144.5
-138.696
-135.212
-135.586
-140.96
-152.009
-166.665
-179.619
-185.906
-182.24
-169.653
-151.778
-127.867
-91.799
-31.57
64.87
199.458
365.162
546.621
724.212
883.668
1011.031
1092.033
1117.128
1077.825
973.668
815.18
613.401
378.796
123.21
-142.915
-402.279
-628.692
-803.727
-918.962
-978.883
-1002.588
-1003.901
-987.759
-953.53
-895.686
-815.069
-719.028
-616.68
-516.939
-424.856
-343.539
-275.19
-220.209
-178.627
-149.055
-128.575
-115.293
-107.487
-102.531
-98.443
-93.476
-85.875
-75.537
-63.313
-49.632
-35.261
-21.355
-8.717
1.596
8.461
11.809
12.082
9.728
5.519
0.241
-5.46
-10.711
-14.672
-16.962
-17.432
-16.097
-13.138
-8.671
-2.801
4.26
12.273
21.02
30.307
40.006
49.995
60.092
70.092
79.778
88.989
97.645
105.712
113.178
120.053
126.362
132.159
137.536
142.577
147.36
151.958
156.425
160.83
165.256
169.787
174.51
179.493
184.771
190.371
196.306
202.581
209.191
216.119
223.332
230.803
238.507
246.425
254.534
262.81
271.217
279.721
288.284
296.866
305.43
313.934
322.338
330.601
338.681
346.538
354.134
361.428
368.375
374.932
381.054
386.698
391.822
396.387
400.354
403.689
406.36
408.341
409.607
410.139
409.92
408.938
407.183
404.65
401.338
397.248
392.389
386.77
380.406
373.316
365.523
357.054
347.938
338.21
327.907
317.067
305.735
293.955
281.775
269.244
256.413
243.335
230.063
216.651
203.152
189.62
176.106
162.662
149.337
136.178
123.229
110.533
98.131
86.059
74.352
63.041
52.157
41.724
31.765
22.299
13.342
4.907
-2.999
-10.369
-17.2
-23.495
-29.257
-34.493
-39.213
-43.431
-47.163
-50.428
-53.245
-55.638
-57.632
-59.253
-60.528
-61.486
-62.156
-62.565
-62.743
-62.718
-62.519
-62.172
-61.704
-61.142
-60.508
-59.827
-59.121
-58.412
-57.717
-57.055
-56.444
-55.896
-55.426
-55.045
-54.764
-54.59
-54.531
-54.591
-54.773
-55.08
-55.511
-56.066
-56.74
-57.529
-58.429
-59.433
-60.533
-61.722
-62.992
-64.333
-65.737
-67.195
-68.698
-70.236
-71.803
-73.388
-74.986
-76.587
-78.185
-79.773
-81.345
-82.895
-84.417
-85.906
-87.358
-88.768
-90.132
-91.446
-92.708
-93.915
-95.065
-96.157
-97.191
-98.166
-99.084
-99.944
-100.749
-101.501
-102.202
-102.856
-103.466
-104.035
-104.566
-105.065
-105.534
-105.977
-106.399
-106.802
-107.19
-107.567
-107.935
-108.298
-108.658
-109.018
-109.382
-109.751
-110.129
-110.518
-110.921
-111.341
-111.778
-112.236
-112.716
-113.219
-113.746
-114.297
-114.872
-115.471
-116.093
-116.736
-117.396
-118.07
-118.756
-119.448
-120.143
-120.836
-121.52
-122.191
-122.842
-123.468
-124.064
-124.622
-125.137
-125.602
-126.011
-126.359
-126.639
-126.847
-126.975
-127.019
-126.973
-126.835
-126.599
-126.261
-125.819
-125.27
-124.613
-123.85
-122.98
-122.007
-120.934
-119.769
-118.522
-117.201
-115.816
-114.381
-112.907
-111.408
-109.897
-108.385
-106.883
-105.403
-103.959
-102.565
-101.237
-99.987
-98.831
-97.785
-96.862
-96.076
-95.436
-94.942
-94.595
-94.4
-94.363
-94.501
-94.825
-95.333
-96.025
-96.897
-97.938
-99.128
-100.423
-101.754
-103.057
-104.275
-105.358
-106.28
-107.003
-107.48
-107.669
-107.514
-106.974
-106.043
-104.703
-102.939
-100.777
-98.278
-95.574
-92.878
-90.397
-88.302
-86.741
-85.835
-85.73
-86.603
-88.618
-91.915
-96.544
-102.53
-109.998
-118.97
-129.291
-140.549
-151.893
-162.351
-171.181
-177.62
-180.768
-180.07
-175.237
-166.593
-155.673
-144.079
-132.903
-123.51
-117.35
-115.264
-117.655
-122.259
-123.406
-115.826
-96.369
-66.498
-30.452
9.918
58.122
126.511
226.583
363.44
534.395
719.534
895.622
1041.642
1133.567
1160.998
1120.37
1008.894
837.929
618.127
355.843
65.577
-239.118
-538.867
-800.103
-995.002
-1109.465
-1144.362
-1122.793
-1073.804
-1014.254
-951.434
-882.09
-798.048
-700.66
-596.93
-494.522
-402.13
-323.439
-258.07
-205.773
-165.771
-136.411
-115.886
-102.328
-93.539
-88.123
-85.432
-84.092
-82.205
-78.588
-72.961
-65.434
-56.505
-46.249
-34.198
-20.79
-7.542
4.066
13.301
19.995
24.405
26.626
26.277
23.546
19.542
15.599
12.668
11.19
11.174
12.626
15.849
20.972
27.709
35.525
43.9
52.553
61.416
70.43
79.428
88.182
96.502
104.328
111.684
118.578
125.002
130.942
136.396
141.42
146.112
150.56
154.844
159.025
163.143
167.26
171.447
175.778
180.338
185.186
190.353
195.865
201.736
207.968
214.562
221.502
228.75
236.273
244.04
252.023
260.202
268.551
277.033
285.612
294.248
302.899
311.527
320.092
328.55
336.859
344.977
352.863
360.48
367.79
374.75
381.319
387.454
393.115
398.263
402.86
406.87
410.26
412.999
415.062
416.427
417.075
416.989
416.159
414.575
412.233
409.132
405.275
400.668
395.323
389.252
382.474
375.009
366.882
358.12
348.754
338.817
328.344
317.375
305.95
294.112
281.904
269.374
256.569
243.537
230.329
216.993
203.58
190.14
176.723
163.375
150.145
137.079
124.219
111.609
99.288
87.295
75.663
64.427
53.614
43.252
33.364
23.97
15.087
6.729
-1.095
-8.376
-15.11
-21.297
-26.937
-32.037
-36.604
-40.649
-44.186
-47.231
-49.803
-51.922
-53.612
-54.897
-55.804
-56.36
-56.594
-56.536
-56.217
-55.667
-54.918
-54.002
-52.949
-51.789
-50.553
-49.268
-47.961
-46.659
-45.385
-44.16
-43.007
-41.943
-40.986
-40.149
-39.447
-38.889
-38.486
-38.243
-38.165
-38.256
-38.515
-38.943
-39.537
-40.293
-41.206
-42.27
-43.475
-44.815
-46.279
-47.857
-49.536
-51.305
-53.15
-55.059
-57.019
-59.016
-61.037
-63.07
-65.104
-67.127
-69.129
-71.1
-73.03
-74.913
-76.739
-78.505
-80.203
-81.829
-83.382
-84.858
-86.256
-87.578
-88.822
-89.991
-91.087
-92.113
-93.072
-93.968
-94.804
-95.584
-96.315
-96.999
-97.644
-98.255
-98.837
-99.397
-99.939
-100.47
-100.996
-101.52
-102.048
-102.584
-103.132
-103.696
-104.279
-104.883
-105.512
-106.167
-106.849
-107.559
-108.297
-109.063
-109.855
-110.672
-111.51
-112.368
-113.241
-114.126
-115.018
-115.912
-116.805
-117.692
-118.568
-119.426
-120.263
-121.073
-121.849
-122.586
-123.28
-123.924
-124.512
-125.039
-125.5
-125.89
-126.205
-126.439
-126.587
-126.646
-126.612
-126.481
-126.251
-125.92
-125.484
-124.943
-124.299
-123.552
-122.704
-121.759
-120.72
-119.596
-118.397
-117.131
-115.809
-114.443
-113.044
-111.626
-110.201
-108.78
-107.371
-105.984
-104.632
-103.325
-102.078
-100.905
-99.819
-98.833
-97.959
-97.209
-96.591
-96.106
-95.752
-95.531
-95.447
-95.515
-95.749
-96.157
-96.743
-97.511
-98.454
-99.555
-100.785
-102.09
-103.415
-104.711
-105.935
-107.057
-108.049
-108.876
-109.493
-109.853
-109.907
-109.621
-108.97
-107.924
-106.489
-104.722
-102.725
-100.658
-98.684
-96.924
-95.507
-94.583
-94.303
-94.851
-96.404
-99.071
-103.023
-108.492
-115.586
-124.289
-134.293
-144.898
-155.302
-164.75
-172.389
-177.334
-178.942
-176.94
-171.876
-165.181
-158.555
-153.589
-151.626
-153.822
-160.836
-172.367
-186.559
-200.036
-208.47
-207.193
-192.07
-159.249
-105.344
-28.482
71.155
191.661
327.344
469.135
608.696
736.527
847.209
941.333
1014.724
1060.626
1066.861
1015.184
898.468
720.302
492.696
235.184
-37.225
-310.558
-567.209
-786.03
-944.4
-1030.504
-1046.866
-1010.525
-945.381
-867.039
-783.46
-695.111
-598.662
-497.15
-396.719
-304.439
-227.687
-169.015
-127.522
-101.182
-86.316
-79.46
-78.019
-78.719
-78.715
-76.01
-68.982
-57.459
-42.416
-24.946
-6.245
12.199
29.114
43.277
53.454
59.369
61.423
60.196
56.48
51.039
44.567
37.882
31.881
27.13
23.878
22.193
21.974
23.138
25.644
29.381
34.175
39.852
46.259
53.256
60.757
68.668
76.829
85.071
93.214
101.074
108.541
115.565
122.104
128.153
133.731
138.863
143.609
148.053
152.263
156.305
160.234
164.09
167.934
171.832
175.853
180.07
184.534
189.268
194.293
199.615
205.231
211.133
217.297
223.685
230.269
237.022
243.919
250.936
258.048
265.221
272.42
279.609
286.75
293.808
300.749
307.533
314.126
320.491
326.596
332.408
337.897
343.028
347.766
352.079
355.934
359.3
362.15
364.457
366.195
367.345
367.889
367.814
367.11
365.768
363.786
361.161
357.897
353.998
349.474
344.335
338.598
332.278
325.397
317.977
310.045
301.629
292.76
283.47
273.796
263.773
253.44
242.837
232.004
220.981
209.812
198.537
187.199
175.839
164.498
153.215
142.03
130.98
120.101
109.426
98.986
88.812
78.931
69.367
60.143
51.279
42.793
34.7
27.013
19.742
12.895
6.476
0.488
-5.071
-10.202
-14.911
-19.207
-23.099
-26.601
-29.725
-32.489
-34.911
-37.009
-38.803
-40.317
-41.571
-42.59
-43.395
-44.012
-44.462
-44.771
-44.96
-45.052
-45.068
-45.03
-44.958
-44.869
-44.782
-44.714
-44.68
-44.694
-44.769
-44.917
-45.148
-45.469
-45.887
-46.408
-47.035
-47.769
-48.613
-49.564
-50.62
-51.778
-53.033
-54.38
-55.812
-57.321
-58.901
-60.541
-62.235
-63.971
-65.742
-67.539
-69.353
-71.176
-72.999
-74.816
-76.62
-78.405
-80.163
-81.891
-83.583
-85.236
-86.845
-88.407
-89.922
-91.387
-92.801
-94.165
-95.479
-96.746
-97.967
-99.144
-100.281
-101.383
-102.451
-103.492
-104.51
-105.511
-106.499
-107.48
-108.459
-109.442
-110.433
-111.436
-112.455
-113.493
-114.552
-115.634
-116.739
-117.869
-119.022
-120.199
-121.398
-122.616
-123.853
-125.104
-126.366
-127.634
-128.905
-130.172
-131.43
-132.673
-133.893
-135.085
-136.24
-137.353
-138.416
-139.42
-140.359
-141.223
-142.005
-142.697
-143.29
-143.778
-144.152
-144.406
-144.533
-144.53
-144.392
-144.114
-143.695
-143.132
-142.425
-141.574
-140.579
-139.444
-138.169
-136.759
-135.222
-133.562
-131.787
-129.905
-127.927
-125.867
-123.737
-121.553
-119.329
-117.08
-114.822
-112.574
-110.349
-108.163
-106.027
-103.957
-101.966
-100.072
-98.292
-96.641
-95.133
-93.78
-92.592
-91.581
-90.753
-90.104
-89.633
-89.337
-89.221
-89.3
-89.587
-90.083
-90.787
-91.693
-92.782
-94.037
-95.424
-96.887
-98.374
-99.836
-101.227
-102.527
-103.709
-104.729
-105.544
-106.088
-106.299
-106.149
-105.606
-104.648
-103.305
-101.622
-99.686
-97.651
-95.646
-93.794
-92.251
-91.145
-90.623
-90.857
-91.975
-94.133
-97.556
-102.326
-108.415
-115.635
-123.476
-131.346
-138.704
-144.853
-149.056
-150.839
-149.931
-146.619
-141.983
-137.201
-133.409
-131.693
-132.717
-137.042
-144.99
-155.404
-165.958
-172.652
-169.651
-153.689
-123.13
-78.862
-25.893
36.348
111.759
205.94
327.798
473.588
629.745
777.489
891.975
962.023
985.673
966.045
913.994
827.552
700.682
527.564
298.914
26.398
-264.718
-542.128
-764.808
-910.698
-978.242
-978.575
-935.588
-867.705
-783.844
-692.095
-600.518
-518.194
-453.385
-406.283
-368.074
-329.823
-286.98
-241.17
-200.187
-169.109
-148.106
-135.006
-124.968
-114.93
-104.266
-92.199
-78.87
-64.858
-50.312
-35.71
-21.916
-9.478
0.907
8.214
12.171
13.028
11.13
7.145
1.727
-4.597
-11.03
-16.668
-20.976
-23.669
-24.66
-24.055
-21.883
-18.149
-12.99
-6.603
0.792
8.987
17.835
27.214
36.962
46.868
56.668
66.151
75.19
83.713
91.694
99.118
105.962
112.246
118.04
123.417
128.459
133.234
137.792
142.197
146.528
150.875
155.342
160.005
164.908
170.083
175.547
181.31
187.38
193.746
200.376
207.244
214.328
221.609
229.073
236.698
244.451
252.301
260.211
268.148
276.08
283.973
291.791
299.497
307.056
314.436
321.605
328.527
335.164
341.478
347.428
352.976
358.085
362.718
366.84
370.417
373.421
375.825
377.607
378.747
379.228
379.037
378.165
376.605
374.356
371.417
367.793
363.49
358.52
352.898
346.64
339.767
332.302
324.273
315.708
306.641
297.106
287.139
276.779
266.067
255.043
243.751
232.235
220.54
208.708
196.787
184.819
172.85
160.921
149.073
137.345
125.775
114.399
103.249
92.356
81.749
71.454
61.495
51.894
42.671
33.842
25.422
17.423
9.854
2.722
-3.968
-10.216
-16.02
-21.385
-26.315
-30.817
-34.901
-38.578
-41.86
-44.762
-47.299
-49.49
-51.353
-52.907
-54.173
-55.171
-55.922
-56.448
-56.769
-56.906
-56.88
-56.709
-56.415
-56.015
-55.528
-54.974
-54.368
-53.727
-53.069
-52.407
-51.757
-51.132
-50.544
-50.004
-49.523
-49.11
-48.772
-48.517
-48.351
-48.278
-48.301
-48.425
-48.648
-48.973
-49.398
-49.92
-50.539
-51.25
-52.05
-52.934
-53.897
-54.936
-56.045
-57.218
-58.45
-59.734
-61.065
-62.437
-63.842
-65.273
-66.724
-68.188
-69.657
-71.125
-72.586
-74.032
-75.458
-76.858
-78.226
-79.558
-80.849
-82.096
-83.294
-84.442
-85.538
-86.581
-87.57
-88.506
-89.391
-90.225
-91.011
-91.75
-92.447
-93.102
-93.72
-94.302
-94.852
-95.374
-95.872
-96.349
-96.809
-97.256
-97.693
-98.126
-98.557
-98.989
-99.426
-99.869
-100.321
-100.785
-101.261
-101.751
-102.254
-102.772
-103.302
-103.844
-104.395
-104.951
-105.507
-106.058
-106.599
-107.123
-107.625
-108.097
-108.532
-108.922
-109.262
-109.545
-109.765
-109.915
-109.988
-109.979
-109.885
-109.7
-109.422
-109.048
-108.577
-108.013
-107.358
-106.616
-105.794
-104.896
-103.93
-102.905
-101.827
-100.704
-99.544
-98.354
-97.144
-95.927
-94.718
-93.53
-92.379
-91.278
-90.24
-89.28
-88.409
-87.631
-86.948
-86.365
-85.89
-85.544
-85.342
-85.289
-85.389
-85.645
-86.05
-86.59
-87.242
-87.955
-88.684
-89.391
-90.043
-90.628
-91.127
-91.508
-91.727
-91.737
-91.494
-90.982
-90.195
-89.105
-87.72
-86.096
-84.327
-82.578
-81.003
-79.683
-78.708
-78.176
-78.201
-78.97
-80.646
-83.305
-87.073
-92.112
-98.49
-106.231
-115.096
-124.401
-133.421
-141.537
-148.001
-152.089
-153.302
-151.304
-146.43
-140.047
-133.576
-127.998
-124.699
-125.214
-130.205
-140.082
-152.877
-163.048
-167.191
-163.784
-152.441
-135.912
-110.245
-65.432
7.289
115.549
253.678
405.255
554.605
686.963
799.735
895.958
971.274
1018.047
1019.869
959.345
833.347
646.845
411.541
147.197
-128.567
-396.635
-630.955
-811.363
-927.84
-981.325
-988.54
-969.855
-936.498
-892.668
-836.346
-763.193
-676.174
-582.696
-489.85
-404.708
-331.046
-269.669
-220.75
-183.76
-156.996
-138.227
-125.637
-117.216
-111.032
-105.714
-99.735
-91.671
-81.324
-69.206
-55.82
-42.062
-28.842
-16.821
-6.953
-0.171
3.353
3.91
1.972
-1.71
-6.372
-11.334
-15.803
-19.034
-20.642
-20.497
-18.599
-15.091
-10.102
-3.751
3.758
12.181
21.318
30.997
41.058
51.355
61.676
71.768
81.447
90.585
99.11
107.006
114.259
120.867
126.872
132.348
137.373
142.027
146.377
150.477
154.4
158.232
162.066
166.009
170.136
174.498
179.135
184.068
189.311
194.873
200.74
206.886
213.29
219.934
226.801
233.883
241.156
248.594
256.167
263.841
271.586
279.368
287.155
294.911
302.6
310.189
317.644
324.934
332.022
338.871
345.44
351.689
357.577
363.064
368.113
372.682
376.738
380.246
383.177
385.504
387.203
388.251
388.631
388.328
387.329
385.628
383.218
380.098
376.27
371.74
366.517
360.614
354.047
346.836
339.003
330.574
321.578
312.047
302.014
291.515
280.589
269.275
257.615
245.653
233.433
221
208.401
195.683
182.891
170.071
157.269
144.529
131.892
119.402
107.096
95.013
83.19
71.66
60.456
49.606
39.14
29.08
19.45
10.268
1.551
-6.687
-14.436
-21.688
-28.437
-34.682
-40.422
-45.66
-50.4
-54.651
-58.423
-61.727
-64.579
-66.995
-68.993
-70.595
-71.821
-72.695
-73.241
-73.485
-73.451
-73.167
-72.658
-71.951
-71.074
-70.053
-68.915
-67.685
-66.389
-65.051
-63.696
-62.345
-61.021
-59.741
-58.526
-57.392
-56.354
-55.425
-54.62
-53.947
-53.416
-53.035
-52.809
-52.743
-52.839
-53.097
-53.516
-54.093
-54.824
-55.704
-56.724
-57.877
-59.154
-60.544
-62.036
-63.618
-65.277
-67.002
-68.777
-70.59
-72.426
-74.272
-76.112
-77.935
-79.727
-81.475
-83.169
-84.797
-86.35
-87.817
-89.192
-90.465
-91.632
-92.686
-93.624
-94.44
-95.135
-95.706
-96.156
-96.485
-96.698
-96.798
-96.792
-96.686
-96.487
-96.205
-95.848
-95.425
-94.947
-94.425
-93.869
-93.291
-92.703
-92.116
-91.54
-90.987
-90.467
-89.989
-89.561
-89.192
-88.888
-88.656
-88.5
-88.423
-88.43
-88.522
-88.699
-88.963
-89.312
-89.742
-90.251
-90.832
-91.478
-92.183
-92.936
-93.728
-94.546
-95.38
-96.216
-97.042
-97.846
-98.613
-99.33
-99.983
-100.559
-101.046
-101.434
-101.709
-101.862
-101.886
-101.775
-101.523
-101.128
-100.586
-99.899
-99.071
-98.107
-97.014
-95.8
-94.474
-93.047
-91.532
-89.943
-88.291
-86.591
-84.855
-83.101
-81.347
-79.615
-77.924
-76.294
-74.746
-73.298
-71.97
-70.775
-69.72
-68.81
-68.052
-67.456
-67.045
-66.836
-66.833
-67.04
-67.458
-68.076
-68.877
-69.828
-70.87
-71.95
-73.023
-74.048
-75.01
-75.884
-76.634
-77.217
-77.578
-77.662
-77.446
-76.903
-76.002
-74.755
-73.218
-71.491
-69.754
-68.172
-66.847
-65.902
-65.442
-65.59
-66.527
-68.398
-71.274
-75.278
-80.573
-87.246
-95.307
-104.446
-113.925
-122.973
-130.897
-136.962
-140.395
-140.527
-136.991
-130.305
-121.984
-113.663
-106.555
-101.786
-100.726
-104.592
-113.94
-126.063
-135.061
-135.602
-124.391
-103.697
-78.512
-48.256
-6.897
57.913
159.507
299.483
469.694
654.267
831.796
986.314
1103.543
1168.815
1172.167
1106.414
973.329
784.881
555.295
297.406
20.991
-263.5
-539.279
-780.437
-960.69
-1066.619
-1100.165
-1080.509
-1033.451
-974.482
-910.595
-840.611
-758.751
-666.931
-571.222
-477.782
-393.887
-322.534
-263.017
-214.738
-176.513
-146.518
-123.379
-105.72
-91.651
-79.77
-69.263
-59.051
-48.106
-36.257
-23.645
-10.53
2.347
14.325
24.947
33.461
39.081
41.656
41.413
38.733
34.328
28.916
23.13
17.788
13.684
11.227
10.582
11.751
14.565
18.878
24.565
31.399
39.12
47.517
56.403
65.652
75.145
84.695
94.083
103.096
111.573
119.44
126.667
133.251
139.207
144.582
149.452
153.921
158.086
162.031
165.828
169.539
173.236
177.006
180.938
185.122
189.627
194.493
199.749
205.411
211.481
217.952
224.801
231.992
239.493
247.277
255.318
263.59
272.063
280.698
289.455
298.291
307.161
316.023
324.829
333.533
342.088
350.448
358.566
366.4
373.902
381.026
387.721
393.941
399.639
404.771
409.293
413.166
416.352
418.82
420.539
421.487
421.641
420.988
419.513
417.212
414.079
410.118
405.333
399.736
393.342
386.169
378.24
369.583
360.228
350.211
339.57
328.346
316.583
304.33
291.635
278.551
265.13
251.427
237.499
223.4
209.188
194.918
180.646
166.426
152.312
138.355
124.602
111.101
97.896
85.026
72.53
60.441
48.792
37.609
26.918
16.739
7.089
-2.017
-10.568
-18.559
-25.984
-32.844
-39.141
-44.881
-50.073
-54.73
-58.865
-62.497
-65.645
-68.33
-70.577
-72.411
-73.86
-74.951
-75.712
-76.175
-76.367
-76.32
-76.062
-75.622
-75.028
-74.308
-73.488
-72.593
-71.647
-70.672
-69.69
-68.719
-67.779
-66.886
-66.056
-65.302
-64.636
-64.07
-63.613
-63.273
-63.055
-62.965
-63.006
-63.18
-63.487
-63.926
-64.494
-65.189
-66.006
-66.94
-67.986
-69.135
-70.383
-71.72
-73.141
-74.636
-76.2
-77.823
-79.499
-81.22
-82.98
-84.772
-86.589
-88.425
-90.274
-92.129
-93.985
-95.836
-97.676
-99.5
-101.301
-103.075
-104.817
-106.522
-108.187
-109.807
-111.379
-112.9
-114.368
-115.78
-117.135
-118.431
-119.668
-120.843
-121.958
-123.011
-124.003
-124.935
-125.805
-126.616
-127.368
-128.063
-128.701
-129.284
-129.813
-130.291
-130.719
-131.1
-131.437
-131.733
-131.993
-132.219
-132.417
-132.59
-132.743
-132.881
-133.006
-133.124
-133.238
-133.351
-133.466
-133.585
-133.712
-133.848
-133.995
-134.155
-134.329
-134.516
-134.717
-134.931
-135.157
-135.392
-135.634
-135.88
-136.126
-136.369
-136.605
-136.828
-137.034
-137.217
-137.369
-137.485
-137.558
-137.58
-137.545
-137.445
-137.275
-137.03
-136.704
-136.295
-135.8
-135.217
-134.548
-133.795
-132.958
-132.043
-131.053
-129.993
-128.869
-127.687
-126.453
-125.173
-123.857
-122.512
-121.149
-119.782
-118.42
-117.08
-115.774
-114.515
-113.318
-112.194
-111.147
-110.183
-109.31
-108.537
-107.883
-107.361
-106.976
-106.731
-106.625
-106.652
-106.798
-107.033
-107.307
-107.573
-107.79
-107.926
-107.969
-107.899
-107.692
-107.316
-106.728
-105.901
-104.821
-103.478
-101.862
-99.984
-97.882
-95.664
-93.492
-91.529
-89.923
-88.767
-88.141
-88.154
-88.922
-90.6
-93.308
-97.081
-101.981
-108.135
-115.614
-124.391
-134.148
-144.124
-153.486
-161.557
-167.639
-171.012
-171.043
-167.278
-160.096
-150.922
-141.347
-132.618
-125.917
-122.521
-123.586
-129.919
-139.22
-145.929
-145.191
-134.117
-114.906
-92.348
-65.53
-26.718
37.169
137.143
273.125
432.567
596.67
749.719
880.966
986.02
1059.196
1087.54
1059.524
964.568
802.388
584.794
324.623
40.97
-248.836
-526.456
-766.285
-949.989
-1065.184
-1111.077
-1102.598
-1053.407
-973.66
-872.319
-753.318
-627.012
-512.241
-420.599
-357.877
-320.702
-293.283
-266.007
-236.253
-204.768
-178.65
-160.889
-149.219
-140.893
-132.068
-120.741
-107.044
-91.736
-75.997
-60.605
-46.256
-33.675
-23.284
-15.647
-11.321
-10.192
-11.853
-15.844
-21.456
-28.042
-35.002
-41.535
-46.877
-50.599
-52.499
-52.546
-50.84
-47.447
-42.445
-36.023
-28.423
-19.884
-10.606
-0.719
9.656
20.345
31.111
41.693
51.897
61.611
70.772
79.35
87.318
94.666
101.44
107.724
113.602
119.152
124.433
129.487
134.374
139.167
143.951
148.816
153.827
159.018
164.416
170.037
175.89
181.979
188.282
194.768
201.408
208.182
215.073
222.067
229.141
236.266
243.414
250.554
257.658
264.697
271.641
278.458
285.12
291.597
297.864
303.894
309.659
315.13
320.275
325.062
329.462
333.445
336.981
340.043
342.606
344.645
346.142
347.078
347.436
347.204
346.37
344.926
342.867
340.19
336.896
332.987
328.471
323.358
317.66
311.392
304.573
297.224
289.37
281.036
272.25
263.044
253.45
243.501
233.234
222.685
211.892
200.893
189.727
178.433
167.05
155.618
144.176
132.76
121.408
110.157
99.039
88.09
77.34
66.82
56.557
46.579
36.909
27.571
18.584
9.965
1.731
-6.106
-13.537
-20.551
-27.145
-33.315
-39.06
-44.381
-49.28
-53.764
-57.839
-61.513
-64.797
-67.702
-70.242
-72.429
-74.28
-75.81
-77.036
-77.975
-78.646
-79.066
-79.254
-79.227
-79.005
-78.606
-78.047
-77.346
-76.521
-75.589
-74.566
-73.468
-72.309
-71.105
-69.867
-68.61
-67.343
-66.077
-64.823
-63.588
-62.382
-61.212
-60.084
-59.005
-57.979
-57.012
-56.107
-55.267
-54.495
-53.793
-53.162
-52.604
-52.119
-51.708
-51.371
-51.108
-50.917
-50.799
-50.752
-50.773
-50.862
-51.016
-51.232
-51.507
-51.84
-52.226
-52.663
-53.149
-53.68
-54.252
-54.864
-55.511
-56.19
-56.897
-57.628
-58.379
-59.146
-59.927
-60.717
-61.512
-62.311
-63.109
-63.905
-64.694
-65.473
-66.241
-66.995
-67.732
-68.45
-69.148
-69.825
-70.48
-71.114
-71.725
-72.314
-72.881
-73.426
-73.95
-74.452
-74.933
-75.392
-75.829
-76.244
-76.638
-77.01
-77.361
-77.691
-78
-78.288
-78.553
-78.796
-79.014
-79.206
-79.37
-79.503
-79.603
-79.668
-79.694
-79.679
-79.619
-79.508
-79.344
-79.119
-78.83
-78.471
-78.035
-77.518
-76.917
-76.227
-75.447
-74.576
-73.612
-72.56
-71.422
-70.203
-68.907
-67.542
-66.113
-64.629
-63.098
-61.525
-59.92
-58.291
-56.649
-55.006
-53.376
-51.773
-50.211
-48.708
-47.275
-45.93
-44.684
-43.544
-42.52
-41.622
-40.864
-40.269
-39.855
-39.633
-39.612
-39.794
-40.173
-40.736
-41.449
-42.261
-43.126
-43.996
-44.836
-45.628
-46.343
-46.95
-47.411
-47.674
-47.702
-47.472
-46.965
-46.174
-45.114
-43.834
-42.45
-41.129
-40.033
-39.31
-39.058
-39.368
-40.367
-42.172
-44.927
-48.769
-53.746
-59.936
-67.48
-76.396
-86.558
-97.626
-108.864
-119.454
-128.793
-136.227
-141.034
-142.712
-140.953
-136.058
-129.188
-121.715
-114.589
-108.377
-103.929
-102.09
-102.993
-105.906
-107.42
-101.713
-85.995
-59.611
-23.486
17.751
66.741
131.504
217.881
332.978
471.994
618.262
756.171
868.393
944.756
985.152
988.274
953.668
881.032
768.274
617.85
436.542
233.094
18.319
-196.765
-401.918
-587.304
-744.048
-865.475
-947.63
-988.845
-991.25
-959.079
-895.834
-808.009
-700.301
-577.174
-450.782
-330.649
-227.172
-150.907
-98.926
-66.968
-50.171
-40.238
-37.134
-40.674
-47.398
-55.606
-60.929
-60.13
-53.555
-41.938
-26.812
-10.201
6.193
20.55
31.113
37.131
38.807
36.77
31.908
25.154
17.454
9.877
3.453
-1.229
-3.988
-4.863
-4.014
-1.56
2.403
7.698
14.088
21.356
29.334
37.887
46.892
56.18
65.514
74.644
83.384
91.622
99.302
106.406
112.916
118.83
124.188
129.059
133.521
137.651
141.513
145.161
148.67
152.123
155.617
159.255
163.109
167.226
171.637
176.36
181.405
186.777
192.461
198.429
204.656
211.122
217.811
224.709
231.793
239.033
246.398
253.854
261.368
268.91
276.445
283.938
291.355
298.662
305.824
312.812
319.588
326.115
332.353
338.262
343.803
348.937
353.627
357.834
361.525
364.669
367.237
369.205
370.55
371.253
371.296
370.669
369.361
367.365
364.68
361.306
357.246
352.509
347.106
341.051
334.36
327.056
319.162
310.705
301.715
292.223
282.265
271.876
261.097
249.966
238.527
226.823
214.896
202.792
190.556
178.232
165.866
153.501
141.179
128.942
116.831
104.883
93.136
81.624
70.379
59.434
48.816
38.551
28.663
19.173
10.1
1.459
-6.737
-14.477
-21.754
-28.563
-34.902
-40.771
-46.174
-51.115
-55.603
-59.647
-63.259
-66.452
-69.242
-71.646
-73.682
-75.37
-76.73
-77.784
-78.555
-79.064
-79.336
-79.393
-79.259
-78.957
-78.51
-77.941
-77.271
-76.523
-75.716
-74.871
-74.007
-73.141
-72.289
-71.466
-70.686
-69.962
-69.302
-68.718
-68.215
-67.802
-67.482
-67.26
-67.139
-67.12
-67.204
-67.391
-67.679
-68.065
-68.548
-69.121
-69.781
-70.523
-71.34
-72.226
-73.174
-74.178
-75.229
-76.322
-77.448
-78.6
-79.771
-80.952
-82.138
-83.322
-84.498
-85.66
-86.804
-87.927
-89.025
-90.097
-91.139
-92.153
-93.135
-94.088
-95.009
-95.901
-96.764
-97.599
-98.407
-99.191
-99.952
-100.693
-101.416
-102.123
-102.818
-103.501
-104.176
-104.844
-105.507
-106.167
-106.824
-107.481
-108.138
-108.796
-109.455
-110.115
-110.775
-111.434
-112.09
-112.738
-113.377
-114.001
-114.605
-115.184
-115.733
-116.245
-116.716
-117.138
-117.507
-117.814
-118.056
-118.226
-118.318
-118.329
-118.252
-118.084
-117.823
-117.466
-117.012
-116.462
-115.815
-115.074
-114.245
-113.333
-112.345
-111.289
-110.173
-109.008
-107.803
-106.57
-105.318
-104.055
-102.793
-101.541
-100.315
-99.129
-97.996
-96.933
-95.951
-95.062
-94.28
-93.612
-93.059
-92.62
-92.297
-92.096
-92.033
-92.121
-92.367
-92.774
-93.342
-94.063
-94.919
-95.879
-96.892
-97.911
-98.894
-99.805
-100.629
-101.347
-101.928
-102.335
-102.516
-102.417
-102.012
-101.275
-100.176
-98.729
-96.992
-95.059
-93.094
-91.244
-89.596
-88.256
-87.33
-86.927
-87.221
-88.365
-90.464
-93.7
-98.304
-104.366
-111.849
-120.408
-129.293
-137.721
-144.966
-150.194
-152.579
-151.605
-147.209
-140.188
-132.205
-125.021
-120.126
-118.841
-122.38
-131.305
-145.124
-161.724
-177.352
-187.578
-188.099
-174.852
-143.635
-91.218
-15.981
81.822
199.043
330.275
469.223
606.904
732.88
839.022
916.301
959.638
966.709
930.622
850.222
725.23
556.674
355.478
128.066
-118.313
-371.078
-617.319
-835.462
-1002.618
-1103.156
-1132.148
-1096.082
-1008.978
-891.044
-761.202
-638.298
-537.933
-463.375
-410.246
-367.249
-322.896
-274.452
-225.502
-183.818
-154.485
-137.052
-128.107
-121.884
-114.808
-105.841
-94.221
-80.45
-65.35
-49.282
-33.068
-17.925
-4.681
5.796
12.563
15.512
15.017
11.557
5.876
-1.239
-9.11
-16.923
-23.77
-29.134
-32.777
-34.613
-34.745
-33.238
-30.127
-25.551
-19.72
-12.833
-5.073
3.402
12.495
22.047
31.845
41.666
51.277
60.519
69.313
77.612
85.394
92.657
99.423
105.748
111.716
117.41
122.898
128.242
133.491
138.71
143.976
149.369
154.975
160.848
167.019
173.505
180.314
187.444
194.881
202.598
210.555
218.717
227.053
235.536
244.14
252.833
261.576
270.332
279.058
287.715
296.264
304.666
312.879
320.865
328.585
336.003
343.085
349.795
356.094
361.945
367.31
372.153
376.439
380.138
383.217
385.65
387.413
388.487
388.854
388.504
387.425
385.612
383.062
379.778
375.764
371.029
365.584
359.446
352.634
345.17
337.08
328.392
319.137
309.351
299.069
288.331
277.177
265.648
253.79
241.646
229.263
216.687
203.965
191.142
178.267
165.384
152.538
139.773
127.131
114.651
102.373
90.331
78.56
67.09
55.951
45.168
34.765
24.762
15.178
6.026
-2.68
-10.933
-18.725
-26.053
-32.917
-39.317
-45.259
-50.748
-55.792
-60.401
-64.59
-68.37
-71.758
-74.771
-77.428
-79.747
-81.749
-83.455
-84.885
-86.06
-87.002
-87.733
-88.271
-88.639
-88.855
-88.938
-88.908
-88.781
-88.573
-88.301
-87.977
-87.615
-87.226
-86.82
-86.406
-85.991
-85.584
-85.188
-84.808
-84.449
-84.112
-83.8
-83.512
-83.25
-83.013
-82.798
-82.604
-82.429
-82.27
-82.124
-81.988
-81.859
-81.735
-81.611
-81.487
-81.358
-81.223
-81.08
-80.926
-80.76
-80.582
-80.39
-80.185
-79.967
-79.738
-79.499
-79.253
-79.001
-78.746
-78.492
-78.242
-78
-77.769
-77.553
-77.357
-77.186
-77.044
-76.935
-76.865
-76.839
-76.86
-76.935
-77.066
-77.259
-77.515
-77.839
-78.233
-78.7
-79.241
-79.859
-80.553
-81.325
-82.174
-83.1
-84.102
-85.177
-86.322
-87.533
-88.808
-90.141
-91.525
-92.956
-94.425
-95.926
-97.451
-98.994
-100.544
-102.094
-103.633
-105.152
-106.642
-108.091
-109.489
-110.825
-112.087
-113.266
-114.353
-115.337
-116.208
-116.958
-117.578
-118.062
-118.402
-118.593
-118.629
-118.506
-118.221
-117.773
-117.163
-116.391
-115.46
-114.376
-113.148
-111.786
-110.301
-108.705
-107.01
-105.232
-103.385
-101.486
-99.546
-97.579
-95.599
-93.622
-91.668
-89.754
-87.897
-86.117
-84.43
-82.854
-81.407
-80.1
-78.935
-77.915
-77.046
-76.337
-75.811
-75.479
-75.344
-75.414
-75.689
-76.161
-76.816
-77.614
-78.493
-79.397
-80.272
-81.076
-81.788
-82.368
-82.775
-82.969
-82.89
-82.508
-81.814
-80.776
-79.368
-77.615
-75.582
-73.397
-71.271
-69.372
-67.832
-66.797
-66.395
-66.799
-68.19
-70.687
-74.34
-79.188
-85.342
-92.896
-101.836
-111.842
-122.257
-132.333
-141.372
-148.699
-153.481
-154.973
-152.756
-147.127
-139.261
-130.424
-121.909
-115.215
-111.957
-113.835
-120.082
-126.38
-127.703
-119.066
-102.243
-86.173
-75.067
-68.273
-50.84
4.954
115.944
288.217
505.794
731.225
932.398
1079.247
1155.524
1162.426
1099.21
974.173
796.532
571.366
313.339
34.539
-248.828
-512.017
-734.517
-896.523
-989.941
-1023.081
-1011.367
-975.151
-927.325
-871.343
-806.799
-730.29
-643.931
-554.107
-466.656
-387.751
-320.193
-263.647
-217.733
-181.589
-153.657
-132.607
-117.195
-105.749
-96.887
-89.596
-82.533
-74.379
-64.745
-53.708
-41.447
-28.578
-15.736
-3.433
7.415
15.74
21.172
23.816
23.937
22.114
18.952
14.954
10.882
7.619
5.654
5.199
6.308
8.812
12.589
17.582
23.614
30.464
37.962
45.94
54.297
62.99
71.894
80.852
89.701
98.247
106.376
114.045
121.219
127.903
134.127
139.922
145.351
150.504
155.448
160.251
164.965
169.628
174.296
179.033
183.909
189.003
194.37
200.037
206.026
212.344
218.985
225.941
233.187
240.684
248.399
256.302
264.366
272.566
280.872
289.248
297.654
306.05
314.394
322.645
330.763
338.705
346.43
353.897
361.067
367.904
374.371
380.428
386.037
391.159
395.757
399.796
403.243
406.068
408.242
409.741
410.543
410.633
409.997
408.626
406.514
403.659
400.064
395.734
390.679
384.911
378.447
371.306
363.511
355.086
346.061
336.467
326.337
315.708
304.619
293.11
281.225
269.006
256.498
243.748
230.803
217.707
204.51
191.257
177.995
164.771
151.63
138.615
125.77
113.134
100.747
88.645
76.862
65.43
54.377
43.731
33.516
23.752
14.46
5.655
-2.649
-10.441
-17.713
-24.459
-30.676
-36.363
-41.524
-46.162
-50.285
-53.902
-57.024
-59.665
-61.84
-63.566
-64.861
-65.746
-66.243
-66.375
-66.165
-65.638
-64.821
-63.74
-62.42
-60.89
-59.175
-57.302
-55.297
-53.187
-50.995
-48.748
-46.469
-44.182
-41.91
-39.673
-37.493
-35.389
-33.381
-31.485
-29.717
-28.092
-26.625
-25.326
-24.208
-23.279
-22.549
-22.023
-21.709
-21.61
-21.729
-22.068
-22.626
-23.403
-24.396
-25.602
-27.016
-28.633
-30.445
-32.445
-34.625
-36.977
-39.49
-42.154
-44.958
-47.892
-50.942
-54.097
-57.344
-60.671
-64.063
-67.509
-70.993
-74.505
-78.029
-81.554
-85.065
-88.55
-91.997
-95.394
-98.728
-101.99
-105.167
-108.251
-111.233
-114.103
-116.855
-119.482
-121.976
-124.334
-126.55
-128.621
-130.544
-132.315
-133.933
-135.397
-136.707
-137.863
-138.867
-139.718
-140.419
-140.974
-141.385
-141.655
-141.788
-141.788
-141.659
-141.408
-141.04
-140.561
-139.975
-139.29
-138.512
-137.647
-136.701
-135.679
-134.586
-133.429
-132.211
-130.938
-129.614
-128.244
-126.831
-125.378
-123.891
-122.372
-120.824
-119.252
-117.657
-116.043
-114.414
-112.774
-111.127
-109.478
-107.832
-106.195
-104.575
-102.979
-101.416
-99.891
-98.414
-96.99
-95.628
-94.332
-93.106
-91.957
-90.887
-89.903
-89.012
-88.22
-87.534
-86.961
-86.508
-86.181
-85.983
-85.907
-85.95
-86.109
-86.383
-86.78
-87.304
-87.951
-88.721
-89.611
-90.612
-91.709
-92.867
-94.03
-95.144
-96.162
-97.042
-97.759
-98.283
-98.577
-98.603
-98.32
-97.698
-96.721
-95.372
-93.631
-91.498
-89.02
-86.31
-83.536
-80.873
-78.474
-76.457
-74.948
-74.11
-74.11
-75.125
-77.318
-80.759
-85.54
-91.87
-99.819
-109.276
-119.885
-130.81
-141.082
-149.979
-156.72
-160.373
-160.392
-156.581
-149.388
-140.507
-131.98
-125.317
-121.775
-122.769
-129.105
-140.386
-155.235
-169.006
-174.084
-165.902
-141.849
-100.884
-48.249
15.303
95.598
196.515
326.966
490.869
676.195
864.845
1029.143
1136.33
1165.812
1111.692
983.504
805.117
601.791
386.197
158.77
-84.329
-343.67
-603.921
-834.656
-1007.808
-1107.833
-1136.261
-1112.441
-1058.803
-988.855
-909.784
-821.765
-723.005
-618.094
-513.532
-416.271
-333.475
-268.015
-219.675
-186.978
-166.516
-154.721
-148.972
-146.193
-143.584
-139.044
-130.694
-118.008
-101.815
-83.24
-63.469
-43.941
-25.895
-10.555
0.733
7.579
10.369
9.71
6.446
1.424
-4.62
-10.791
-16.07
-19.868
-21.943
-22.233
-20.894
-18.022
-13.667
-7.981
-1.188
6.506
14.9
23.833
33.214
42.894
52.671
62.33
71.636
80.432
88.647
96.238
103.195
109.522
115.243
120.421
125.149
129.52
133.618
137.516
141.271
144.959
148.668
152.49
156.522
160.832
165.46
170.435
175.775
181.488
187.572
194.012
200.773
207.827
215.152
222.727
230.532
238.538
246.713
255.02
263.419
271.872
280.34
288.783
297.156
305.42
313.531
321.449
329.135
336.546
343.638
350.367
356.688
362.556
367.932
372.773
377.042
380.703
383.725
386.08
387.744
388.696
388.919
388.4
387.129
385.101
382.314
378.77
374.473
369.433
363.664
357.182
350.007
342.163
333.676
324.578
314.902
304.684
293.963
282.779
271.177
259.202
246.9
234.318
221.507
208.513
195.388
182.18
168.937
155.708
142.538
129.471
116.55
103.815
91.307
79.059
67.107
55.482
44.213
33.326
22.846
12.794
3.188
-5.956
-14.624
-22.807
-30.496
-37.688
-44.379
-50.57
-56.265
-61.469
-66.191
-70.441
-74.232
-77.579
-80.499
-83.01
-85.134
-86.891
-88.303
-89.394
-90.188
-90.709
-90.98
-91.027
-90.873
-90.542
-90.059
-89.446
-88.725
-87.919
-87.049
-86.135
-85.197
-84.253
-83.321
-82.417
-81.558
-80.758
-80.03
-79.386
-78.838
-78.394
-78.064
-77.854
-77.769
-77.812
-77.988
-78.296
-78.736
-79.308
-80.008
-80.833
-81.779
-82.842
-84.014
-85.29
-86.662
-88.123
-89.665
-91.278
-92.955
-94.686
-96.461
-98.272
-100.109
-101.963
-103.824
-105.682
-107.529
-109.355
-111.151
-112.906
-114.613
-116.263
-117.848
-119.361
-120.795
-122.145
-123.406
-124.574
-125.646
-126.619
-127.491
-128.262
-128.931
-129.498
-129.966
-130.336
-130.611
-130.795
-130.892
-130.908
-130.846
-130.713
-130.515
-130.256
-129.944
-129.583
-129.179
-128.737
-128.264
-127.765
-127.247
-126.715
-126.175
-125.631
-125.088
-124.551
-124.022
-123.504
-122.999
-122.506
-122.027
-121.561
-121.107
-120.664
-120.23
-119.8
-119.372
-118.941
-118.502
-118.049
-117.576
-117.075
-116.541
-115.967
-115.35
-114.682
-113.962
-113.185
-112.352
-111.463
-110.52
-109.522
-108.472
-107.373
-106.229
-105.04
-103.81
-102.54
-101.234
-99.898
-98.538
-97.163
-95.782
-94.405
-93.042
-91.704
-90.404
-89.149
-87.941
-86.783
-85.683
-84.652
-83.711
-82.88
-82.162
-81.566
-81.094
-80.74
-80.491
-80.312
-80.141
-79.923
-79.605
-79.145
-78.523
-77.712
-76.672
-75.368
-73.752
-71.787
-69.472
-66.804
-63.776
-60.421
-56.81
-53.082
-49.457
-46.151
-43.335
-41.156
-39.733
-39.209
-39.768
-41.549
-44.65
-49.109
-54.945
-62.293
-71.203
-81.477
-92.641
-103.911
-114.421
-123.513
-130.47
-134.28
-134.258
-130.267
-122.792
-113.196
-102.697
-92.163
-82.961
-76.697
-74.372
-74.531
-73.254
-66.375
-51.264
-30.175
-7.122
19.028
53.46
106.762
190.953
308.771
456.258
621.711
784.869
925.835
1024.133
1064.265
1042.747
964.278
843.558
698.101
538.203
368.966
186.971
-15.085
-233.795
-457.002
-662.165
-819.543
-913.806
-943.428
-920.506
-869.644
-806.557
-739.299
-670.157
-593.585
-509.891
-423.277
-337.859
-260.679
-195.64
-142.818
-102.279
-72.571
-51.336
-37.56
-29.946
-26.053
-23.971
-21.944
-18.097
-11.991
-4.074
5.508
16.179
26.855
36.709
44.658
49.528
51.125
49.768
45.812
39.957
32.965
25.487
18.386
12.497
8.2
5.647
4.832
5.588
7.805
11.391
16.15
21.866
28.359
35.462
43.073
51.085
59.33
67.612
75.725
83.513
90.9
97.849
104.346
110.397
116.023
121.271
126.218
130.936
135.488
139.929
144.299
148.655
153.064
157.597
162.334
167.327
172.605
178.183
184.066
190.248
196.717
203.446
210.394
217.526
224.813
232.227
239.743
247.332
254.956
262.58
270.166
277.675
285.073
292.322
299.387
306.233
312.826
319.134
325.131
330.785
336.065
340.939
345.377
349.35
352.83
355.792
358.211
360.067
361.341
362.017
362.086
361.537
360.364
358.565
356.139
353.088
349.417
345.135
340.252
334.78
328.736
322.136
315.002
307.355
299.221
290.625
281.598
272.169
262.37
252.235
241.798
231.094
220.16
209.032
197.746
186.339
174.849
163.312
151.765
140.244
128.782
117.414
106.171
95.085
84.185
73.499
63.054
52.873
42.982
33.401
24.151
15.249
6.712
-1.445
-9.21
-16.573
-23.525
-30.061
-36.176
-41.87
-47.143
-51.996
-56.434
-60.464
-64.093
-67.33
-70.187
-72.675
-74.81
-76.605
-78.077
-79.242
-80.119
-80.726
-81.081
-81.205
-81.116
-80.834
-80.379
-79.772
-79.032
-78.18
-77.235
-76.216
-75.144
-74.037
-72.912
-71.786
-70.676
-69.597
-68.562
-67.583
-66.674
-65.843
-65.1
-64.452
-63.907
-63.47
-63.146
-62.937
-62.847
-62.877
-63.028
-63.298
-63.688
-64.194
-64.816
-65.55
-66.393
-67.341
-68.39
-69.534
-70.77
-72.09
-73.49
-74.962
-76.499
-78.096
-79.745
-81.44
-83.172
-84.937
-86.728
-88.538
-90.362
-92.195
-94.031
-95.864
-97.69
-99.504
-101.301
-103.075
-104.822
-106.538
-108.218
-109.859
-111.456
-113.004
-114.501
-115.94
-117.317
-118.629
-119.869
-121.033
-122.115
-123.111
-124.015
-124.825
-125.536
-126.143
-126.641
-127.028
-127.3
-127.454
-127.487
-127.395
-127.177
-126.833
-126.361
-125.763
-125.042
-124.201
-123.246
-122.184
-121.021
-119.766
-118.429
-117.02
-115.55
-114.027
-112.464
-110.871
-109.261
-107.647
-106.043
-104.466
-102.931
-101.454
-100.053
-98.747
-97.552
-96.483
-95.549
-94.755
-94.111
-93.629
-93.326
-93.216
-93.3
-93.577
-94.046
-94.703
-95.536
-96.517
-97.591
-98.704
-99.804
-100.857
-101.841
-102.732
-103.501
-104.104
-104.494
-104.646
-104.554
-104.219
-103.641
-102.816
-101.758
-100.563
-99.406
-98.459
-97.888
-97.793
-98.213
-99.241
-101.004
-103.64
-107.267
-111.929
-117.609
-124.357
-132.385
-141.762
-152.278
-163.4
-174.208
-183.804
-191.513
-196.571
-197.935
-194.962
-187.792
-177.172
-164.815
-152.735
-142.513
-135.99
-135.297
-140.065
-147.093
-153.131
-154.877
-152.821
-150.556
-146.248
-130.665
-89.433
-10.346
109.857
261.257
427.547
598.186
761.732
908.216
1025.255
1089.083
1085.282
1010.77
874.71
703.318
515.781
322.612
125.616
-85.222
-308.528
-533.103
-740.289
-901.693
-1002.538
-1039.752
-1017.354
-952.21
-858.206
-748.642
-641.264
-546.967
-472.842
-418.89
-374.096
-329.503
-281.085
-230.174
-185.359
-152.048
-130.193
-117.57
-109.133
-101.515
-94.154
-86.381
-77.567
-67.608
-56.491
-44.477
-32.382
-20.889
-10.383
-1.561
4.776
8.424
9.57
8.593
6.177
2.966
-0.515
-3.603
-5.625
-6.227
-5.283
-2.799
1.071
6.191
12.459
19.682
27.624
36.097
44.938
54.009
63.203
72.345
81.222
89.682
97.624
104.996
111.8
118.038
123.721
128.903
133.66
138.076
142.234
146.2
150.028
153.784
157.543
161.388
165.41
169.675
174.23
179.106
184.32
189.884
195.801
202.055
208.618
215.464
222.571
229.917
237.486
245.252
253.18
261.237
269.384
277.583
285.796
293.983
302.102
310.11
317.967
325.633
333.07
340.236
347.089
353.588
359.688
365.349
370.532
375.199
379.313
382.842
385.756
388.03
389.64
390.568
390.798
390.318
389.118
387.195
384.547
381.175
377.087
372.29
366.799
360.629
353.8
346.334
338.258
329.601
320.394
310.671
300.468
289.824
278.779
267.372
255.647
243.646
231.412
218.989
206.419
193.745
181.01
168.256
155.521
142.846
130.268
117.822
105.542
93.46
81.608
70.012
58.7
47.696
37.021
26.697
16.74
7.167
-2.01
-10.779
-19.133
-27.064
-34.569
-41.646
-48.295
-54.517
-60.317
-65.7
-70.672
-75.241
-79.418
-83.213
-86.637
-89.702
-92.423
-94.814
-96.889
-98.663
-100.154
-101.377
-102.349
-103.087
-103.607
-103.927
-104.064
-104.035
-103.857
-103.546
-103.119
-102.59
-101.976
-101.29
-100.546
-99.758
-98.937
-98.095
-97.244
-96.392
-95.551
-94.728
-93.933
-93.172
-92.452
-91.781
-91.165
-90.607
-90.114
-89.688
-89.334
-89.053
-88.848
-88.72
-88.669
-88.695
-88.797
-88.975
-89.227
-89.55
-89.942
-90.401
-90.922
-91.504
-92.141
-92.832
-93.571
-94.354
-95.178
-96.037
-96.927
-97.842
-98.779
-99.731
-100.694
-101.663
-102.632
-103.596
-104.547
-105.482
-106.393
-107.276
-108.123
-108.929
-109.688
-110.394
-111.044
-111.631
-112.151
-112.598
-112.968
-113.257
-113.46
-113.574
-113.595
-113.519
-113.344
-113.068
-112.692
-112.214
-111.638
-110.966
-110.202
-109.351
-108.418
-107.411
-106.336
-105.201
-104.013
-102.779
-101.506
-100.205
-98.886
-97.559
-96.235
-94.928
-93.648
-92.411
-91.228
-90.113
-89.077
-88.127
-87.267
-86.506
-85.855
-85.332
-84.949
-84.709
-84.61
-84.65
-84.822
-85.114
-85.499
-85.926
-86.342
-86.702
-86.969
-87.12
-87.132
-86.97
-86.59
-85.944
-85.002
-83.76
-82.224
-80.402
-78.31
-75.98
-73.512
-71.083
-68.872
-67.054
-65.764
-65.083
-65.127
-66.04
-67.983
-71.107
-75.494
-81.138
-88.036
-96.284
-105.912
-116.785
-128.454
-140.111
-150.92
-160.202
-167.307
-171.431
-171.84
-168.135
-160.634
-150.496
-139.05
-127.645
-117.636
-110.417
-107.536
-108.327
-109.356
-107.108
-97.336
-80.262
-61.711
-41.932
-18.407
17.875
85.462
191.768
336.3
511.211
693.519
864.915
1007.686
1101.649
1135.81
1100.588
997.097
839.13
643.232
427.268
197.84
-44.131
-294.194
-543.027
-765.682
-936.218
-1041.588
-1077.658
-1059.366
-1007.111
-931.659
-846.271
-755.581
-660.608
-570.164
-484.367
-404.583
-334.799
-272.867
-222.079
-184.762
-158.581
-142.663
-133.626
-127.28
-121.609
-114.616
-104.769
-91.97
-76.752
-59.901
-42.445
-25.585
-10.347
2.173
10.725
14.958
15.237
12.136
6.495
-0.845
-9.15
-17.51
-24.883
-30.642
-34.502
-36.362
-36.346
-34.527
-30.937
-25.717
-19.09
-11.275
-2.489
7.077
17.299
27.995
38.928
49.849
60.494
70.68
80.31
89.326
97.698
105.414
112.483
118.952
124.902
130.414
135.564
140.418
145.032
149.48
153.849
158.233
162.727
167.397
172.28
177.402
182.777
188.411
194.301
200.43
206.764
213.279
219.955
226.775
233.723
240.776
247.907
255.086
262.28
269.46
276.597
283.658
290.613
297.429
304.076
310.525
316.745
322.706
328.374
333.712
338.684
343.256
347.394
351.064
354.233
356.873
358.956
360.46
361.364
361.65
361.303
360.311
358.665
356.359
353.391
349.761
345.472
340.532
334.951
328.741
321.919
314.505
306.522
297.994
288.951
279.424
269.445
259.051
248.279
237.17
225.765
214.105
202.235
190.2
178.043
165.81
153.546
141.294
129.097
116.998
105.035
93.248
81.672
70.344
59.293
48.552
38.146
28.103
18.443
9.188
0.354
-8.044
-15.993
-23.484
-30.512
-37.072
-43.162
-48.786
-53.945
-58.648
-62.904
-66.722
-70.118
-73.107
-75.705
-77.931
-79.807
-81.353
-82.592
-83.548
-84.243
-84.703
-84.952
-85.014
-84.912
-84.67
-84.311
-83.856
-83.327
-82.744
-82.125
-81.489
-80.852
-80.23
-79.637
-79.087
-78.59
-78.158
-77.8
-77.523
-77.334
-77.238
-77.239
-77.34
-77.541
-77.843
-78.246
-78.747
-79.343
-80.032
-80.808
-81.667
-82.604
-83.611
-84.684
-85.816
-87
-88.231
-89.503
-90.81
-92.146
-93.506
-94.886
-96.281
-97.686
-99.099
-100.515
-101.932
-103.347
-104.757
-106.16
-107.553
-108.936
-110.307
-111.664
-113.005
-114.331
-115.641
-116.933
-118.208
-119.464
-120.702
-121.921
-123.12
-124.299
-125.455
-126.587
-127.693
-128.771
-129.818
-130.832
-131.809
-132.745
-133.636
-134.478
-135.267
-135.997
-136.662
-137.257
-137.776
-138.214
-138.564
-138.823
-138.985
-139.045
-139
-138.847
-138.583
-138.205
-137.711
-137.1
-136.372
-135.527
-134.567
-133.493
-132.31
-131.024
-129.646
-128.187
-126.656
-125.067
-123.432
-121.766
-120.084
-118.397
-116.714
-115.047
-113.408
-111.81
-110.271
-108.807
-107.43
-106.152
-104.984
-103.937
-103.022
-102.24
-101.584
-101.052
-100.643
-100.367
-100.25
-100.306
-100.537
-100.946
-101.525
-102.264
-103.149
-104.146
-105.197
-106.249
-107.252
-108.168
-108.986
-109.671
-110.183
-110.466
-110.435
-110.039
-109.248
-108.037
-106.413
-104.404
-102.054
-99.466
-96.792
-94.181
-91.813
-89.854
-88.449
-87.788
-88.002
-89.275
-91.885
-95.908
-101.303
-107.877
-115.079
-122.341
-129.267
-135.237
-139.514
-141.725
-141.569
-139.322
-136.295
-133.643
-132.234
-132.915
-136.267
-142.683
-152.578
-165.492
-177.735
-183.876
-179.323
-159.69
-126.557
-87.47
-44.8
0.936
56.037
138.76
256.967
411.037
593.945
779.03
943.277
1066.252
1125.618
1114.435
1031.3
881.664
683.206
450.979
195.748
-73.238
-347.445
-611.071
-838.576
-1005.668
-1100.278
-1125.254
-1099.103
-1044.688
-975.601
-898.207
-812.143
-714.925
-610.734
-506.226
-408.607
-325.262
-259.213
-210.474
-177.81
-157.964
-147.511
-143.851
-143.794
-144.291
-142.836
-137.105
-126.247
-110.914
-92.185
-71.265
-49.655
-28.744
-9.988
4.989
15.547
21.882
24.471
24.076
21.473
17.331
12.484
7.903
4.187
1.653
0.495
0.668
2.146
4.936
8.922
13.944
19.868
26.559
33.892
41.801
50.182
58.9
67.846
76.883
85.885
94.734
103.299
111.486
119.25
126.575
133.479
139.999
146.175
152.065
157.746
163.282
168.734
174.155
179.582
185.064
190.652
196.399
202.363
208.585
215.084
221.869
228.939
236.281
243.879
251.706
259.721
267.884
276.162
284.522
292.936
301.368
309.781
318.13
326.371
334.461
342.359
350.022
357.406
364.47
371.173
377.479
383.354
388.764
393.673
398.046
401.849
405.053
407.628
409.55
410.793
411.338
411.168
410.273
408.644
406.278
403.173
399.334
394.766
389.48
383.492
376.819
369.481
361.504
352.914
343.742
334.022
323.789
313.082
301.939
290.404
278.518
266.328
253.877
241.212
228.379
215.425
202.396
189.338
176.298
163.319
150.446
137.721
125.184
112.875
100.831
89.085
77.669
66.614
55.946
45.689
35.865
26.493
17.587
9.162
1.227
-6.212
-13.148
-19.582
-25.514
-30.948
-35.89
-40.348
-44.332
-47.855
-50.933
-53.58
-55.815
-57.657
-59.128
-60.249
-61.044
-61.536
-61.75
-61.711
-61.446
-60.979
-60.337
-59.545
-58.628
-57.611
-56.519
-55.373
-54.198
-53.012
-51.837
-50.691
-49.591
-48.553
-47.591
-46.719
-45.948
-45.287
-44.747
-44.334
-44.053
-43.91
-43.908
-44.049
-44.334
-44.761
-45.33
-46.038
-46.88
-47.853
-48.951
-50.167
-51.493
-52.921
-54.443
-56.05
-57.732
-59.48
-61.283
-63.134
-65.021
-66.937
-68.872
-70.818
-72.767
-74.712
-76.645
-78.561
-80.453
-82.317
-84.147
-85.94
-87.692
-89.4
-91.063
-92.677
-94.241
-95.754
-97.215
-98.624
-99.981
-101.287
-102.541
-103.746
-104.903
-106.015
-107.083
-108.108
-109.094
-110.042
-110.954
-111.832
-112.675
-113.483
-114.258
-114.998
-115.703
-116.372
-117.004
-117.595
-118.143
-118.645
-119.099
-119.499
-119.841
-120.122
-120.335
-120.478
-120.546
-120.534
-120.44
-120.257
-119.984
-119.618
-119.157
-118.598
-117.938
-117.177
-116.315
-115.353
-114.292
-113.135
-111.886
-110.549
-109.136
-107.656
-106.12
-104.541
-102.932
-101.307
-99.682
-98.071
-96.487
-94.939
-93.441
-92.007
-90.654
-89.4
-88.259
-87.246
-86.373
-85.653
-85.099
-84.717
-84.501
-84.448
-84.557
-84.833
-85.296
-85.959
-86.825
-87.895
-89.167
-90.626
-92.256
-94.022
-95.866
-97.733
-99.573
-101.346
-103.039
-104.62
-106.046
-107.272
-108.223
-108.844
-109.111
-108.977
-108.411
-107.448
-106.129
-104.558
-102.904
-101.272
-99.773
-98.557
-97.731
-97.468
-97.948
-99.281
-101.669
-105.348
-110.408
-116.867
-124.48
-132.589
-140.522
-147.624
-153.048
-156.067
-156.172
-153.112
-147.552
-140.962
-134.9
-130.892
-130.234
-133.744
-141.858
-154.573
-170.105
-184.975
-195.451
-196.03
-181.621
-150.167
-98.725
-28.072
57.257
157.337
269.384
391.217
525.446
665.58
802.875
928.027
1021.803
1068.902
1058.92
980.58
836.261
635.535
386.97
109.391
-178.182
-456.881
-698.15
-880.257
-993.319
-1037.627
-1031.005
-996.049
-945.825
-886.9
-818.159
-734.602
-639.104
-538.775
-441.336
-355.836
-286.733
-234.512
-198.357
-175.562
-162.866
-157.367
-155.895
-154.848
-151.172
-142.686
-128.543
-109.363
-86.459
-61.301
-35.469
-10.71
11.234
28.815
41.326
48.953
52.27
52.078
49.169
44.25
38.178
31.938
26.219
21.438
17.878
15.582
14.593
15.003
16.78
19.826
24.047
29.309
35.481
42.478
50.184
58.48
67.246
76.3
85.465
94.567
103.422
111.91
119.957
127.499
134.521
141.044
147.099
152.751
158.086
163.17
168.064
172.827
177.502
182.153
186.847
191.65
196.636
201.855
207.336
213.105
219.169
225.52
232.148
239.027
246.116
253.385
260.805
268.345
275.984
283.692
291.435
299.177
306.882
314.508
322.022
329.386
336.56
343.509
350.195
356.585
362.648
368.349
373.655
378.528
382.934
386.839
390.212
393.023
395.243
396.847
397.815
398.127
397.771
396.735
395.012
392.595
389.485
385.683
381.194
376.027
370.194
363.708
356.587
348.853
340.527
331.637
322.211
312.28
301.877
291.039
279.802
268.207
256.295
244.107
231.688
219.081
206.332
193.487
180.589
167.684
154.817
142.029
129.363
116.859
104.555
92.487
80.689
69.193
58.029
47.225
36.806
26.795
17.211
8.072
-0.608
-8.816
-16.542
-23.781
-30.527
-36.78
-42.539
-47.809
-52.595
-56.905
-60.75
-64.143
-67.099
-69.634
-71.768
-73.521
-74.914
-75.97
-76.713
-77.167
-77.357
-77.307
-77.043
-76.588
-75.969
-75.209
-74.332
-73.362
-72.321
-71.23
-70.111
-68.983
-67.864
-66.771
-65.722
-64.729
-63.808
-62.97
-62.227
-61.589
-61.063
-60.658
-60.379
-60.229
-60.213
-60.331
-60.583
-60.969
-61.487
-62.134
-62.907
-63.801
-64.811
-65.931
-67.157
-68.48
-69.894
-71.392
-72.965
-74.608
-76.31
-78.066
-79.866
-81.705
-83.575
-85.468
-87.377
-89.297
-91.22
-93.14
-95.052
-96.95
-98.828
-100.681
-102.507
-104.3
-106.058
-107.778
-109.456
-111.091
-112.68
-114.222
-115.716
-117.159
-118.551
-119.89
-121.177
-122.411
-123.591
-124.717
-125.79
-126.809
-127.775
-128.687
-129.545
-130.348
-131.096
-131.788
-132.423
-133.001
-133.521
-133.983
-134.384
-134.723
-134.999
-135.21
-135.353
-135.425
-135.424
-135.347
-135.192
-134.957
-134.639
-134.236
-133.745
-133.167
-132.498
-131.739
-130.888
-129.945
-128.909
-127.783
-126.567
-125.264
-123.877
-122.411
-120.873
-119.27
-117.612
-115.908
-114.167
-112.401
-110.62
-108.835
-107.055
-105.288
-103.546
-101.838
-100.179
-98.582
-97.061
-95.631
-94.304
-93.091
-92.005
-91.055
-90.24
-89.56
-89.018
-88.619
-88.384
-88.326
-88.449
-88.758
-89.25
-89.915
-90.736
-91.677
-92.682
-93.695
-94.667
-95.557
-96.345
-97.009
-97.509
-97.806
-97.84
-97.56
-96.943
-95.971
-94.622
-92.915
-90.915
-88.73
-86.548
-84.542
-82.827
-81.533
-80.779
-80.687
-81.432
-83.17
-86.009
-90.116
-95.675
-102.753
-111.301
-120.992
-131.136
-140.97
-149.724
-156.519
-160.462
-160.934
-157.756
-151.51
-143.548
-135.418
-128.503
-124.117
-123.617
-127.758
-136.203
-147.187
-157.426
-162.833
-159.413
-143.244
-109.974
-56.253
19.37
116.663
232.951
362.961
500.602
637.373
760.991
862.057
933.745
971.52
978.091
952.479
888.03
780.152
620.904
408.583
156.331
-117.133
-385.22
-616.694
-791.542
-902.871
-952.87
-956.089
-928.47
-874.608
-801.27
-715.534
-620.737
-530.21
-450.731
-378.51
-313.726
-252.005
-192.519
-143.131
-106.972
-84.667
-75.084
-72.854
-73.658
-75.262
-75.527
-72.948
-67.064
-57.908
-45.982
-32.324
-18.213
-4.745
6.871
15.384
20.409
22.125
20.98
17.742
13.198
8.09
3.242
-0.544
-2.835
-3.496
-2.533
-0.092
3.709
8.768
14.907
21.901
29.561
37.746
46.311
55.133
64.045
72.807
81.243
89.234
96.702
103.628
110.008
115.839
121.148
126.007
130.483
134.652
138.583
142.326
145.946
149.522
153.137
156.889
160.851
165.071
169.583
174.408
179.555
185.029
190.821
196.903
203.25
209.844
216.663
223.694
230.915
238.297
245.806
253.408
261.07
268.756
276.433
284.063
291.607
299.029
306.294
313.366
320.209
326.782
333.044
338.956
344.476
349.567
354.191
358.312
361.896
364.914
367.338
369.146
370.317
370.833
370.68
369.848
368.329
366.121
363.221
359.634
355.364
350.423
344.822
338.579
331.712
324.244
316.201
307.612
298.509
288.924
278.895
268.46
257.657
246.53
235.119
223.468
211.622
199.623
187.517
175.346
163.154
150.982
138.872
126.86
114.986
103.283
91.786
80.526
69.531
58.829
48.446
38.404
28.724
19.425
10.52
2.025
-6.05
-13.697
-20.911
-27.689
-34.029
-39.935
-45.408
-50.456
-55.086
-59.307
-63.133
-66.574
-69.647
-72.366
-74.749
-76.813
-78.577
-80.059
-81.278
-82.253
-83.003
-83.546
-83.902
-84.088
-84.122
-84.022
-83.806
-83.49
-83.09
-82.622
-82.101
-81.539
-80.951
-80.346
-79.737
-79.133
-78.543
-77.974
-77.434
-76.928
-76.463
-76.041
-75.667
-75.342
-75.069
-74.847
-74.679
-74.562
-74.498
-74.485
-74.523
-74.61
-74.746
-74.93
-75.161
-75.437
-75.757
-76.119
-76.523
-76.966
-77.447
-77.964
-78.515
-79.1
-79.717
-80.365
-81.044
-81.753
-82.491
-83.258
-84.053
-84.877
-85.727
-86.605
-87.511
-88.446
-89.408
-90.399
-91.418
-92.467
-93.544
-94.649
-95.781
-96.939
-98.12
-99.322
-100.542
-101.778
-103.025
-104.279
-105.536
-106.792
-108.042
-109.281
-110.504
-111.705
-112.879
-114.018
-115.117
-116.169
-117.168
-118.106
-118.978
-119.775
-120.492
-121.123
-121.66
-122.096
-122.426
-122.643
-122.743
-122.719
-122.568
-122.284
-121.868
-121.316
-120.63
-119.81
-118.859
-117.782
-116.585
-115.278
-113.871
-112.373
-110.796
-109.152
-107.455
-105.719
-103.954
-102.173
-100.386
-98.609
-96.857
-95.147
-93.495
-91.918
-90.43
-89.046
-87.781
-86.647
-85.644
-84.779
-84.053
-83.478
-83.076
-82.864
-82.847
-83.031
-83.417
-83.993
-84.744
-85.638
-86.615
-87.623
-88.615
-89.554
-90.421
-91.197
-91.842
-92.319
-92.574
-92.555
-92.243
-91.62
-90.661
-89.389
-87.871
-86.217
-84.617
-83.245
-82.218
-81.665
-81.699
-82.443
-84.075
-86.736
-90.493
-95.455
-101.762
-109.475
-118.578
-128.751
-139.278
-149.4
-158.44
-165.687
-170.404
-171.956
-169.976
-164.909
-158.114
-151.044
-144.769
-140.231
-138.591
-140.934
-147.778
-156.714
-162.449
-160.117
-146.8
-124.83
-99.02
-69.282
-30.192
29.827
123.057
251.609
408.302
578.65
744.544
891.912
1007.186
1076.463
1086.371
1026.408
899.844
719.558
504.612
274.2
32.084
-220.733
-477.484
-726.16
-937.549
-1082.408
-1148.4
-1134.03
-1056.182
-942.321
-813.567
-690.182
-585.223
-499.487
-430.311
-369.559
-309.862
-251.432
-197.965
-156.02
-129.182
-115.723
-111.995
-112.351
-112.76
-111.401
-106.602
-98.155
-86.746
-72.985
-57.849
-42.643
-28.386
-16.212
-7.471
-2.609
-1.373
-3.231
-7.336
-12.824
-18.943
-24.865
-29.672
-32.836
-34.158
-33.596
-31.302
-27.407
-22.002
-15.263
-7.438
1.255
10.631
20.494
30.692
41.029
51.234
61.106
70.494
79.293
87.466
95
101.881
108.133
113.822
119.015
123.79
128.225
132.379
136.332
140.174
144.001
147.923
152.026
156.366
160.988
165.918
171.169
176.753
182.664
188.878
195.375
202.139
209.154
216.41
223.888
231.561
239.396
247.362
255.424
263.552
271.711
279.864
287.977
296.014
303.939
311.72
319.318
326.693
333.802
340.6
347.045
353.095
358.707
363.839
368.454
372.515
375.99
378.851
381.07
382.622
383.489
383.652
383.099
381.82
379.81
377.066
373.59
369.389
364.473
358.856
352.556
345.592
337.991
329.78
320.99
311.657
301.816
291.507
280.773
269.656
258.204
246.462
234.478
222.302
209.98
197.563
185.099
172.633
160.214
147.885
135.689
123.668
111.862
100.307
89.037
78.086
67.481
57.25
47.416
38.001
29.021
20.493
12.427
4.832
-2.284
-8.92
-15.075
-20.752
-25.957
-30.697
-34.984
-38.83
-42.249
-45.26
-47.879
-50.127
-52.025
-53.594
-54.858
-55.84
-56.564
-57.054
-57.334
-57.428
-57.36
-57.152
-56.826
-56.404
-55.907
-55.353
-54.76
-54.147
-53.53
-52.922
-52.339
-51.792
-51.292
-50.849
-50.47
-50.164
-49.933
-49.784
-49.717
-49.736
-49.841
-50.031
-50.305
-50.661
-51.098
-51.611
-52.196
-52.85
-53.567
-54.343
-55.173
-56.053
-56.976
-57.94
-58.94
-59.972
-61.032
-62.118
-63.225
-64.351
-65.492
-66.647
-67.813
-68.989
-70.172
-71.362
-72.558
-73.761
-74.969
-76.184
-77.406
-78.634
-79.871
-81.115
-82.37
-83.634
-84.909
-86.197
-87.498
-88.813
-90.143
-91.487
-92.847
-94.221
-95.608
-97.006
-98.414
-99.829
-101.249
-102.671
-104.092
-105.509
-106.917
-108.315
-109.697
-111.059
-112.397
-113.705
-114.978
-116.211
-117.398
-118.536
-119.619
-120.641
-121.599
-122.488
-123.302
-124.037
-124.689
-125.252
-125.721
-126.092
-126.361
-126.525
-126.58
-126.525
-126.357
-126.076
-125.682
-125.176
-124.557
-123.828
-122.989
-122.045
-120.998
-119.853
-118.615
-117.291
-115.888
-114.418
-112.893
-111.323
-109.722
-108.101
-106.472
-104.85
-103.245
-101.666
-100.121
-98.62
-97.174
-95.796
-94.499
-93.296
-92.197
-91.212
-90.349
-89.619
-89.025
-88.56
-88.22
-88.004
-87.914
-87.969
-88.182
-88.553
-89.084
-89.77
-90.597
-91.548
-92.589
-93.657
-94.699
-95.663
-96.504
-97.205
-97.739
-98.066
-98.147
-97.923
-97.339
-96.381
-95.023
-93.25
-91.101
-88.633
-85.958
-83.261
-80.702
-78.436
-76.642
-75.46
-75.058
-75.634
-77.312
-80.246
-84.638
-90.534
-97.919
-106.657
-116.23
-126.024
-135.485
-143.832
-150.26
-154.27
-155.423
-153.753
-150.221
-145.99
-142.1
-139.671
-139.778
-143.108
-150.212
-161.094
-172.431
-178.699
-175.587
-158.434
-127.67
-89.78
-45.244
7.016
72.558
166.658
293.561
450.668
630.554
810.789
972.851
1098.955
1168.103
1167.628
1086.987
924.704
691.937
409.194
104.749
-195.534
-466.995
-693.631
-869.098
-987.276
-1051.213
-1064.148
-1028.156
-955.936
-860.832
-761.302
-676.552
-611.237
-561.353
-514.256
-456.547
-386.195
-308.989
-235.389
-174.124
-127.535
-93.739
-69.307
-52.656
-43.746
-42.05
-46.417
-54.297
-62.524
-69.271
-73.421
-73.662
-68.904
-58.952
-44.536
-27.593
-10.838
4.13
16.645
25.974
31.482
33.029
30.98
26.584
21.826
17.931
15.371
14.548
15.692
18.954
24.421
31.713
40.03
48.843
57.916
67.08
76.29
85.396
94.133
102.384
110.171
117.511
124.425
130.905
136.9
142.421
147.549
152.363
156.948
161.374
165.679
169.918
174.161
178.484
182.974
187.699
192.698
198.002
203.629
209.592
215.9
222.539
229.482
236.699
244.161
251.84
259.719
267.768
275.957
284.252
292.613
301.002
309.382
317.712
325.952
334.06
341.994
349.714
357.181
364.356
371.198
377.665
383.713
389.301
394.39
398.942
402.92
406.291
409.025
411.095
412.48
413.159
413.116
412.341
410.823
408.559
405.547
401.789
397.292
392.067
386.126
379.488
372.173
364.205
355.612
346.423
336.672
326.395
315.63
304.419
292.803
280.829
268.541
255.987
243.216
230.274
217.211
204.076
190.914
177.775
164.702
151.74
138.931
126.316
113.934
101.82
90.01
78.533
67.421
56.699
46.391
36.518
27.097
18.145
9.672
1.689
-5.799
-12.788
-19.278
-25.271
-30.772
-35.789
-40.332
-44.412
-48.045
-51.247
-54.035
-56.43
-58.453
-60.124
-61.468
-62.507
-63.266
-63.769
-64.041
-64.106
-63.989
-63.715
-63.306
-62.787
-62.18
-61.506
-60.788
-60.044
-59.293
-58.552
-57.837
-57.162
-56.54
-55.983
-55.5
-55.1
-54.79
-54.577
-54.464
-54.454
-54.55
-54.753
-55.063
-55.477
-55.996
-56.615
-57.332
-58.142
-59.042
-60.026
-61.089
-62.225
-63.428
-64.69
-66.005
-67.366
-68.766
-70.198
-71.654
-73.128
-74.614
-76.105
-77.596
-79.081
-80.557
-82.018
-83.461
-84.882
-86.279
-87.649
-88.99
-90.301
-91.579
-92.824
-94.035
-95.212
-96.353
-97.458
-98.529
-99.563
-100.563
-101.529
-102.461
-103.362
-104.233
-105.075
-105.891
-106.685
-107.458
-108.212
-108.952
-109.679
-110.396
-111.106
-111.811
-112.512
-113.212
-113.91
-114.61
-115.309
-116.009
-116.708
-117.405
-118.1
-118.79
-119.476
-120.155
-120.826
-121.486
-122.133
-122.765
-123.38
-123.974
-124.543
-125.082
-125.587
-126.054
-126.477
-126.851
-127.169
-127.424
-127.612
-127.727
-127.763
-127.715
-127.575
-127.342
-127.011
-126.58
-126.048
-125.415
-124.681
-123.853
-122.935
-121.934
-120.859
-119.716
-118.514
-117.262
-115.969
-114.642
-113.288
-111.914
-110.53
-109.148
-107.783
-106.446
-105.15
-103.91
-102.738
-101.648
-100.651
-99.748
-98.94
-98.232
-97.633
-97.163
-96.839
-96.663
-96.637
-96.761
-97.028
-97.422
-97.911
-98.437
-98.947
-99.394
-99.743
-99.978
-100.079
-100.009
-99.728
-99.189
-98.352
-97.215
-95.777
-94.015
-91.942
-89.625
-87.181
-84.799
-82.653
-80.846
-79.483
-78.688
-78.604
-79.41
-81.245
-84.185
-88.336
-93.852
-100.829
-109.269
-118.876
-129.029
-139.063
-148.276
-155.859
-160.963
-162.844
-161.083
-156.076
-148.877
-140.5
-132.345
-126.189
-123.503
-125.714
-132.236
-139.242
-144.367
-146.484
-145.68
-144.959
-139.211
-116.722
-66.453
22.66
147.269
292.216
443.22
586.257
718.83
844.303
957.623
1048.066
1093.896
1072.975
980.171
821.853
617.365
389.348
145.903
-108.742
-369.811
-628.391
-859.46
-1037.471
-1147.246
-1183.686
-1159.812
-1094.236
-1003.248
-903.971
-805.169
-712.658
-629.485
-550.851
-474.472
-398.872
-325.103
-259.944
-207.216
-168.153
-141.468
-122.583
-108.386
-97.365
-88.304
-80.716
-73.698
-65.958
-57.241
-47.832
-38.138
-28.744
-20.144
-12.755
-7.2
-4.216
-3.916
-5.957
-9.821
-14.696
-19.836
-24.668
-28.55
-30.854
-31.288
-29.759
-26.312
-21.19
-14.608
-6.754
2.113
11.746
21.935
32.474
43.175
53.836
64.219
74.142
83.487
92.173
100.18
107.504
114.154
120.197
125.723
130.824
135.591
140.1
144.412
148.611
152.783
157.025
161.441
166.103
171.058
176.344
181.981
187.979
194.341
201.044
208.053
215.34
222.88
230.651
238.635
246.802
255.118
263.548
272.053
280.596
289.141
297.648
306.074
314.382
322.531
330.485
338.207
345.659
352.8
359.588
365.98
371.937
377.419
382.389
386.808
390.645
393.868
396.451
398.371
399.608
400.145
399.968
399.068
397.438
395.075
391.98
388.157
383.613
378.361
372.414
365.791
358.515
350.611
342.106
333.034
323.428
313.325
302.764
291.787
280.435
268.754
256.789
244.585
232.19
219.651
207.014
194.327
181.637
168.986
156.42
143.98
131.707
119.638
107.811
96.26
85.018
74.114
63.578
53.433
43.704
34.411
25.571
17.199
9.305
1.899
-5.014
-11.431
-17.354
-22.784
-27.728
-32.194
-36.193
-39.738
-42.843
-45.527
-47.808
-49.707
-51.247
-52.449
-53.339
-53.94
-54.279
-54.38
-54.27
-53.973
-53.516
-52.922
-52.218
-51.426
-50.572
-49.677
-48.763
-47.851
-46.961
-46.109
-45.313
-44.587
-43.945
-43.397
-42.954
-42.623
-42.411
-42.322
-42.36
-42.527
-42.822
-43.243
-43.788
-44.453
-45.232
-46.12
-47.109
-48.192
-49.36
-50.606
-51.921
-53.295
-54.72
-56.186
-57.684
-59.205
-60.741
-62.282
-63.821
-65.349
-66.861
-68.348
-69.807
-71.232
-72.618
-73.964
-75.266
-76.522
-77.733
-78.896
-80.014
-81.087
-82.119
-83.11
-84.065
-84.988
-85.883
-86.754
-87.607
-88.446
-89.275
-90.1
-90.925
-91.754
-92.592
-93.442
-94.308
-95.193
-96.1
-97.031
-97.988
-98.971
-99.981
-101.017
-102.078
-103.162
-104.264
-105.382
-106.511
-107.646
-108.783
-109.915
-111.035
-112.137
-113.214
-114.258
-115.261
-116.214
-117.11
-117.938
-118.693
-119.365
-119.947
-120.433
-120.815
-121.087
-121.243
-121.281
-121.195
-120.981
-120.636
-120.161
-119.554
-118.817
-117.953
-116.966
-115.862
-114.651
-113.344
-111.953
-110.491
-108.971
-107.409
-105.82
-104.219
-102.62
-101.035
-99.478
-97.965
-96.514
-95.142
-93.867
-92.706
-91.674
-90.785
-90.055
-89.492
-89.096
-88.87
-88.816
-88.941
-89.265
-89.802
-90.556
-91.528
-92.717
-94.108
-95.681
-97.396
-99.192
-101.012
-102.804
-104.522
-106.143
-107.638
-108.965
-110.082
-110.927
-111.446
-111.614
-111.409
-110.805
-109.826
-108.536
-107.043
-105.527
-104.151
-103.023
-102.272
-102.017
-102.384
-103.544
-105.639
-108.761
-113.06
-118.709
-125.769
-134.166
-143.528
-153.149
-162.289
-170.24
-176.226
-179.425
-179.229
-175.472
-168.774
-160.484
-152.084
-144.824
-139.795
-138.141
-140.613
-146.994
-155.564
-163.266
-166.457
-161.32
-144.188
-111.286
-58.859
14.257
105.544
211.654
327.7
450.471
581.385
716.735
846.531
955.792
1020.687
1023.223
960.732
838.757
674.354
484.307
271.482
40.578
-201.592
-440.406
-644.959
-793.681
-878.313
-904.835
-897.27
-872.135
-835.895
-790.124
-728.527
-651.357
-566.064
-479.208
-398.091
-327.668
-268.797
-221.525
-185.518
-158.928
-139.308
-125.167
-115.042
-107.005
-99.886
-92.429
-83.165
-72.1
-59.985
-47.181
-34.32
-22.239
-11.435
-2.734
2.889
5.34
4.969
2.226
-2.187
-7.588
-13.358
-18.744
-22.979
-25.642
-26.581
-25.784
-23.385
-19.49
-14.204
-7.701
-0.216
8.045
16.916
26.227
35.838
45.565
55.16
64.436
73.267
81.563
89.298
96.469
103.069
109.129
114.722
119.916
124.786
129.4
133.809
138.075
142.275
146.488
150.805
155.296
160.002
164.957
170.175
175.663
181.423
187.441
193.688
200.137
206.767
213.557
220.493
227.552
234.706
241.923
249.171
256.42
263.639
270.796
277.859
284.796
291.575
298.166
304.542
310.672
316.523
322.063
327.258
332.077
336.489
340.466
343.977
346.998
349.505
351.478
352.899
353.752
354.024
353.704
352.785
351.262
349.133
346.397
343.059
339.123
334.598
329.495
323.828
317.614
310.87
303.618
295.882
287.688
279.065
270.04
260.647
250.918
240.886
230.587
220.055
209.327
198.439
187.427
176.328
165.178
154.012
142.865
131.77
120.762
109.87
99.126
88.559
78.197
68.064
58.188
48.59
39.293
30.317
21.681
13.402
5.493
-2.032
-9.163
-15.891
-22.211
-28.119
-33.612
-38.691
-43.357
-47.614
-51.468
-54.926
-57.995
-60.688
-63.016
-64.991
-66.629
-67.945
-68.956
-69.679
-70.132
-70.334
-70.304
-70.06
-69.623
-69.012
-68.248
-67.351
-66.341
-65.24
-64.068
-62.844
-61.588
-60.32
-59.055
-57.813
-56.608
-55.456
-54.371
-53.364
-52.449
-51.636
-50.934
-50.35
-49.893
-49.567
-49.376
-49.323
-49.41
-49.637
-50.003
-50.507
-51.148
-51.921
-52.824
-53.851
-54.997
-56.257
-57.623
-59.087
-60.642
-62.279
-63.988
-65.76
-67.585
-69.453
-71.356
-73.283
-75.225
-77.173
-79.119
-81.054
-82.97
-84.861
-86.718
-88.536
-90.309
-92.033
-93.703
-95.315
-96.866
-98.353
-99.774
-101.126
-102.407
-103.616
-104.749
-105.808
-106.79
-107.695
-108.524
-109.275
-109.951
-110.55
-111.076
-111.527
-111.904
-112.209
-112.441
-112.602
-112.692
-112.711
-112.658
-112.534
-112.338
-112.069
-111.728
-111.313
-110.824
-110.259
-109.619
-108.902
-108.11
-107.244
-106.306
-105.301
-104.235
-103.111
-101.937
-100.723
-99.474
-98.199
-96.904
-95.592
-94.272
-92.951
-91.642
-90.356
-89.105
-87.9
-86.755
-85.686
-84.703
-83.818
-83.036
-82.351
-81.766
-81.283
-80.916
-80.684
-80.599
-80.657
-80.851
-81.172
-81.609
-82.145
-82.743
-83.344
-83.897
-84.364
-84.726
-84.986
-85.132
-85.147
-84.989
-84.6
-83.955
-83.055
-81.933
-80.627
-79.166
-77.573
-75.922
-74.35
-73.021
-72.105
-71.656
-71.627
-72.081
-73.237
-75.52
-79.381
-84.949
-92.037
-100.46
-110.183
-121.009
-132.264
-142.474
-149.827
-153.228
-152.467
-147.744
-139.154
-126.896
-112.009
-96.911
-84.838
-78.069
-77.179
-82.169
-93.101
-109.406
-129.527
-148.637
-158.68
-155.072
-136.216
-102.799
-59.626
-3.663
72.29
170.89
296.477
441.9
592.031
739.561
873.184
983.523
1064.074
1095.904
1063.387
961.719
793.65
577.564
336.037
84.305
-165.997
-403.975
-617.258
-790.572
-909.235
-969.358
-976.442
-938.015
-865.397
-768.773
-657.549
-546.782
-449.583
-372.435
-315.114
-269.162
-226.076
-182.536
-140.305
-105.328
-80.937
-66.938
-60.881
-57.621
-53.968
-48.789
-40.985
-31.001
-19.681
-7.109
6.103
18.826
30.317
39.626
45.721
48.538
48.435
45.746
41.123
35.264
28.782
22.525
17.324
13.584
11.469
10.996
12.034
14.521
18.394
23.474
29.541
36.388
43.847
51.816
60.205
68.866
77.59
86.146
94.363
102.149
109.459
116.277
122.588
128.389
133.724
138.672
143.312
147.717
151.946
156.035
160.044
164.044
168.116
172.35
176.811
181.535
186.548
191.866
197.498
203.446
209.692
216.201
222.945
229.899
237.044
244.361
251.824
259.397
267.047
274.738
282.432
290.094
297.686
305.169
312.506
319.661
326.599
333.288
339.693
345.778
351.508
356.844
361.752
366.197
370.146
373.565
376.427
378.703
380.371
381.41
381.803
381.535
380.598
378.983
376.687
373.711
370.057
365.733
360.75
355.122
348.867
342.006
334.564
326.567
318.045
309.033
299.563
289.672
279.399
268.781
257.86
246.677
235.271
223.687
211.965
200.149
188.281
176.402
164.556
152.781
141.116
129.6
118.268
107.154
96.289
85.703
75.423
65.475
55.88
46.66
37.831
29.407
21.402
13.823
6.677
-0.032
-6.304
-12.14
-17.543
-22.519
-27.075
-31.219
-34.962
-38.315
-41.291
-43.905
-46.172
-48.109
-49.734
-51.065
-52.122
-52.924
-53.492
-53.846
-54.006
-53.992
-53.825
-53.525
-53.111
-52.602
-52.017
-51.373
-50.688
-49.976
-49.252
-48.531
-47.824
-47.142
-46.495
-45.893
-45.343
-44.853
-44.429
-44.078
-43.804
-43.613
-43.507
-43.491
-43.566
-43.734
-43.997
-44.354
-44.807
-45.354
-45.994
-46.726
-47.549
-48.46
-49.456
-50.537
-51.697
-52.933
-54.243
-55.623
-57.068
-58.576
-60.143
-61.766
-63.442
-65.168
-66.941
-68.758
-70.617
-72.514
-74.445
-76.409
-78.4
-80.415
-82.45
-84.501
-86.564
-88.635
-90.71
-92.783
-94.85
-96.907
-98.947
-100.967
-102.958
-104.916
-106.834
-108.706
-110.527
-112.291
-113.992
-115.624
-117.181
-118.657
-120.048
-121.346
-122.546
-123.64
-124.624
-125.493
-126.241
-126.864
-127.358
-127.718
-127.944
-128.033
-127.984
-127.797
-127.471
-127.007
-126.407
-125.674
-124.813
-123.829
-122.728
-121.519
-120.213
-118.824
-117.363
-115.846
-114.286
-112.698
-111.1
-109.506
-107.929
-106.382
-104.878
-103.432
-102.061
-100.78
-99.604
-98.547
-97.623
-96.844
-96.226
-95.774
-95.487
-95.365
-95.408
-95.621
-96.02
-96.611
-97.391
-98.362
-99.517
-100.847
-102.335
-103.946
-105.621
-107.309
-108.958
-110.529
-112.001
-113.337
-114.495
-115.43
-116.085
-116.424
-116.439
-116.105
-115.394
-114.326
-112.953
-111.382
-109.795
-108.337
-107.11
-106.234
-105.821
-106.021
-107.004
-108.89
-111.747
-115.643
-120.697
-127.008
-134.548
-143.003
-151.79
-160.243
-167.731
-173.646
-177.197
-177.648
-174.707
-168.79
-160.92
-152.264
-144.009
-137.365
-133.946
-135.578
