Name,Aleksandre Beruashvili
Date of Birth,"Dec 20, 1998"
Recorded Date,2024-05-31 14:58:41 +0400
Classification,Sinus Rhythm
Symptoms,
Software Version,1.90
Device,"Watch7,2"
Sample Rate,512 hertz


Lead,Lead I
Unit,µV

-86.087
-87.611
-88.554
-88.904
-88.653
-87.794
-86.326
-84.248
-81.565
-78.285
-74.417
-69.977
-64.98
-59.447
-53.4
-46.867
-39.875
-32.457
-24.646
-16.479
-7.996
0.765
9.759
18.945
28.277
37.71
47.199
56.698
66.162
75.548
84.812
93.911
102.806
111.459
119.833
127.892
135.607
142.946
149.883
156.392
162.453
168.046
173.153
177.762
181.861
185.442
188.499
191.03
193.034
194.513
195.474
195.923
195.87
195.328
194.31
192.833
190.914
188.574
185.833
182.712
179.234
175.42
171.294
166.877
162.191
157.258
152.099
146.734
141.182
135.462
129.592
123.589
117.468
111.244
104.931
98.542
92.088
85.579
79.025
72.434
65.814
59.17
52.509
45.835
39.15
32.458
25.759
19.055
12.344
5.626
-1.1
-7.835
-14.581
-21.339
-28.108
-34.889
-41.68
-48.479
-55.284
-62.091
-68.896
-75.693
-82.477
-89.239
-95.97
-102.663
-109.305
-115.886
-122.392
-128.812
-135.131
-141.336
-147.41
-153.34
-159.108
-164.7
-170.097
-175.283
-180.239
-184.948
-189.392
-193.552
-197.41
-200.95
-204.153
-207.006
-209.493
-211.601
-213.317
-214.631
-215.534
-216.018
-216.077
-215.708
-214.908
-213.678
-212.021
-209.94
-207.443
-204.538
-201.235
-197.546
-193.484
-189.066
-184.308
-179.228
-173.847
-168.186
-162.269
-156.121
-149.767
-143.236
-136.555
-129.752
-122.859
-115.904
-108.919
-101.934
-94.977
-88.081
-81.273
-74.584
-68.041
-61.671
-55.499
-49.548
-43.84
-38.393
-33.226
-28.353
-23.785
-19.532
-15.604
-12.008
-8.747
-5.824
-3.238
-0.987
0.934
2.53
3.813
4.795
5.489
5.91
6.076
6.005
5.717
5.236
4.584
3.785
2.864
1.846
0.757
-0.373
-1.518
-2.656
-3.76
-4.809
-5.781
-6.654
-7.415
-8.056
-8.562
-8.92
-9.12
-9.155
-9.023
-8.731
-8.267
-7.612
-6.787
-5.808
-4.694
-3.478
-2.147
-0.666
0.919
2.558
4.319
6.246
8.38
10.798
13.428
16.136
18.967
22.012
24.909
27.246
29.243
30.864
32.033
33.615
33.349
29.062
24.016
19.226
20.594
35.166
55.173
75.457
88.333
83.226
69.546
55.267
45.875
50.413
62.39
75.143
87.025
93.813
97.657
101.456
104.544
107.15
108.936
109.167
108.113
106.096
102.915
98.212
91.96
84.411
76.073
67.954
61.052
55.966
53.655
55.352
61.332
71.063
83.269
95.656
105.826
111.802
111.714
103.5
89.202
75.21
65.003
61.541
63.899
64.741
71.372
101.393
169.922
292.484
460.174
644.249
822.371
977.542
1108.147
1219.915
1306.283
1348.876
1324.465
1219.506
1036.038
793.518
522.818
254.461
19.467
-160.072
-276.903
-336.875
-361.577
-372.474
-381.177
-389.67
-389.48
-375.685
-351.617
-324.16
-301.843
-288.426
-282.573
-281.983
-284.102
-286.833
-288.5
-287.056
-281.381
-271.852
-259.417
-245.334
-230.691
-216.218
-202.802
-191.476
-182.785
-176.752
-173.11
-171.308
-170.897
-171.611
-173.052
-174.792
-176.428
-177.51
-177.767
-177.101
-175.419
-172.683
-168.883
-163.983
-158.032
-151.17
-143.52
-135.211
-126.368
-117.074
-107.458
-97.675
-87.891
-78.287
-68.994
-60.088
-51.629
-43.657
-36.192
-29.251
-22.817
-16.839
-11.277
-6.106
-1.3
3.15
7.27
11.099
14.675
18.031
21.199
24.202
27.062
29.805
32.449
35.008
37.49
39.897
42.236
44.52
46.758
48.961
51.138
53.296
55.442
57.583
59.722
61.859
63.99
66.111
68.215
70.296
72.344
74.349
76.298
78.181
79.983
81.692
83.294
84.772
86.112
87.297
88.313
89.144
89.774
90.189
90.374
90.318
90.01
89.44
88.601
87.488
86.095
84.42
82.462
80.222
77.702
74.905
71.836
68.502
64.914
61.083
57.021
52.742
48.264
43.602
38.777
33.805
28.708
23.506
18.22
12.872
7.485
2.082
-3.314
-8.678
-13.989
-19.221
-24.354
-29.367
-34.24
-38.955
-43.495
-47.845
-51.989
-55.916
-59.613
-63.071
-66.28
-69.232
-71.922
-74.343
-76.494
-78.374
-79.981
-81.319
-82.39
-83.198
-83.751
-84.054
-84.117
-83.95
-83.563
-82.97
-82.184
-81.221
-80.098
-78.833
-77.442
-75.945
-74.361
-72.707
-71.003
-69.264
-67.509
-65.754
-64.015
-62.308
-60.649
-59.051
-57.527
-56.092
-54.758
-53.535
-52.433
-51.46
-50.623
-49.927
-49.377
-48.976
-48.724
-48.619
-48.661
-48.845
-49.167
-49.621
-50.196
-50.882
-51.667
-52.539
-53.484
-54.486
-55.529
-56.597
-57.675
-58.747
-59.797
-60.811
-61.77
-62.661
-63.469
-64.181
-64.785
-65.269
-65.618
-65.824
-65.88
-65.782
-65.523
-65.103
-64.519
-63.775
-62.88
-61.845
-60.681
-59.401
-58.021
-56.558
-55.035
-53.47
-51.881
-50.283
-48.695
-47.14
-45.645
-44.234
-42.932
-41.766
-40.76
-39.945
-39.346
-38.979
-38.85
-38.967
-39.341
-39.996
-40.968
-42.278
-43.936
-45.956
-48.343
-51.089
-54.171
-57.528
-61.072
-64.724
-68.417
-72.105
-75.758
-79.322
-82.737
-85.933
-88.841
-91.424
-93.651
-95.47
-96.834
-97.782
-98.433
-98.98
-99.668
-100.668
-102.069
-104.002
-106.641
-110.133
-114.62
-120.219
-126.915
-134.817
-144.241
-155.208
-167.445
-180.404
-193.043
-204.273
-213.278
-218.943
-219.989
-216.136
-207.846
-196.217
-183.291
-171.452
-163.06
-160.321
-165.316
-175.61
-184.352
-188.627
-186.219
-177.545
-169.718
-155.033
-117.024
-45.286
76.226
245.453
443.825
659.142
868.049
1046.91
1175.385
1231.012
1206.117
1105.465
949.946
761.805
554.089
343.676
135.303
-62.418
-230.842
-367.994
-469.887
-536.299
-578.075
-594.081
-584.713
-555.611
-510.07
-458.119
-409.941
-369.431
-338.466
-316.648
-302.038
-293.24
-288.421
-284.568
-278.621
-269.168
-256.246
-240.558
-223.346
-205.626
-188.166
-172.168
-158.9
-148.927
-142.287
-138.629
-137.279
-137.725
-139.605
-142.445
-145.756
-149.07
-151.956
-154.175
-155.65
-156.317
-156.148
-155.103
-153.148
-150.341
-146.805
-142.663
-138.045
-133.054
-127.778
-122.337
-116.866
-111.512
-106.424
-101.695
-97.372
-93.488
-90.053
-87.072
-84.545
-82.433
-80.675
-79.225
-78.042
-77.096
-76.368
-75.821
-75.413
-75.107
-74.867
-74.667
-74.488
-74.312
-74.122
-73.907
-73.662
-73.386
-73.085
-72.758
-72.402
-72.013
-71.591
-71.135
-70.646
-70.126
-69.577
-69.005
-68.419
-67.83
-67.248
-66.687
-66.158
-65.675
-65.253
-64.907
-64.65
-64.499
-64.466
-64.567
-64.816
-65.226
-65.811
-66.581
-67.546
-68.716
-70.099
-71.702
-73.528
-75.583
-77.869
-80.385
-83.133
-86.111
-89.313
-92.736
-96.373
-100.215
-104.254
-108.478
-112.874
-117.429
-122.125
-126.948
-131.877
-136.895
-141.979
-147.11
-152.265
-157.422
-162.557
-167.65
-172.677
-177.616
-182.446
-187.145
-191.693
-196.07
-200.258
-204.239
-207.995
-211.511
-214.772
-217.766
-220.479
-222.902
-225.026
-226.843
-228.347
-229.534
-230.4
-230.944
-231.164
-231.064
-230.645
-229.913
-228.876
-227.542
-225.923
-224.032
-221.885
-219.497
-216.887
-214.074
-211.078
-207.92
-204.622
-201.207
-197.699
-194.12
-190.496
-186.85
-183.207
-179.591
-176.026
-172.533
-169.136
-165.854
-162.708
-159.716
-156.895
-154.262
-151.833
-149.621
-147.638
-145.895
-144.399
-143.157
-142.171
-141.442
-140.966
-140.738
-140.747
-140.983
-141.432
-142.078
-142.903
-143.886
-145.007
-146.241
-147.565
-148.951
-150.373
-151.802
-153.209
-154.565
-155.843
-157.014
-158.05
-158.928
-159.622
-160.111
-160.372
-160.387
-160.137
-159.605
-158.777
-157.639
-156.184
-154.403
-152.294
-149.857
-147.101
-144.039
-140.69
-137.076
-133.222
-129.155
-124.91
-120.516
-116.007
-111.41
-106.751
-102.064
-97.384
-92.746
-88.188
-83.744
-79.446
-75.331
-71.431
-67.769
-64.367
-61.237
-58.387
-55.836
-53.609
-51.74
-50.279
-49.267
-48.722
-48.666
-49.112
-50.052
-51.468
-53.312
-55.503
-57.972
-60.657
-63.493
-66.426
-69.384
-72.277
-75.016
-77.473
-79.527
-81.125
-82.234
-82.827
-82.917
-82.491
-81.591
-80.409
-79.169
-78.062
-77.259
-76.878
-77.104
-78.332
-80.872
-84.753
-89.685
-95.001
-100.03
-104.299
-107.158
-107.579
-104.823
-98.948
-91.122
-83.619
-78.45
-77.459
-82.969
-96.935
-120.695
-151.421
-181.076
-204.329
-217.98
-221.836
-221.625
-209.325
-169.145
-91.995
35.984
209.046
407.779
624.954
840.048
1035.206
1196.691
1293.665
1311.593
1247.841
1105.349
909.393
682.714
446.637
229.586
46.648
-93.586
-190.8
-262.019
-321.284
-375.185
-423.788
-455.984
-463.296
-445.659
-407.94
-360.286
-311.531
-265.488
-223.803
-187.042
-155.933
-132.18
-117.384
-110.777
-109.749
-111.853
-114.69
-116.841
-118.025
-117.185
-112.6
-103.975
-92.123
-78.454
-65.214
-53.599
-43.638
-35.693
-30.263
-27.466
-27.207
-28.744
-30.681
-32.215
-33.1
-33.184
-32.538
-31.132
-28.808
-25.66
-21.957
-17.882
-13.575
-9.075
-4.308
0.701
5.853
11.027
16.069
20.898
25.499
29.86
33.993
37.91
41.618
45.162
48.611
52.018
55.427
58.867
62.348
65.902
69.574
73.412
77.469
81.784
86.38
91.282
96.506
102.063
107.961
114.197
120.76
127.642
134.838
142.34
150.14
158.227
166.581
175.185
184.015
193.046
202.248
211.588
221.031
230.541
240.082
249.614
259.098
268.495
277.765
286.868
295.764
304.412
312.773
320.807
328.477
335.744
342.576
348.937
354.799
360.132
364.914
369.121
372.737
375.745
378.134
379.894
381.02
381.51
381.363
380.584
379.178
377.158
374.535
371.327
367.554
363.236
358.399
353.066
347.268
341.032
334.391
327.377
320.022
312.364
304.437
296.278
287.925
279.415
270.785
262.07
253.307
244.528
235.768
227.058
218.427
209.904
201.517
193.29
185.248
177.41
169.798
162.429
155.317
148.477
141.921
135.657
129.693
124.037
118.693
113.663
108.948
104.547
100.457
96.674
93.19
89.997
87.085
84.441
82.055
79.911
77.997
76.297
74.797
73.481
72.336
71.345
70.493
69.765
69.148
68.626
68.188
67.819
67.508
67.244
67.017
66.818
66.638
66.468
66.3
66.128
65.946
65.748
65.532
65.296
65.039
64.763
64.472
64.171
63.866
63.562
63.266
62.987
62.734
62.516
62.342
62.221
62.162
62.176
62.272
62.462
62.752
63.149
63.661
64.294
65.054
65.945
66.968
68.126
69.419
70.85
72.418
74.122
75.956
77.916
79.992
82.174
84.451
86.804
89.211
91.652
94.103
96.539
98.938
101.273
103.516
105.646
107.639
109.473
111.125
112.565
113.767
114.708
115.361
115.702
115.708
115.354
114.623
113.517
112.028
110.151
107.875
105.17
102.024
98.442
94.422
89.971
85.107
79.858
74.29
68.509
62.608
56.676
50.78
44.957
39.271
33.806
28.64
23.866
19.534
15.652
12.259
9.408
7.101
5.274
3.747
2.247
0.56
-1.464
-3.919
-6.904
-10.605
-15.221
-20.934
-27.886
-36.048
-45.454
-56.319
-68.648
-82.158
-96.148
-109.284
-120.23
-128.107
-131.947
-130.799
-124.423
-112.993
-97.805
-81.674
-67.146
-56.197
-50.705
-51.516
-57.748
-67.497
-76.699
-78.892
-67.863
-37.648
17.345
100.328
211.438
348.285
504.977
672.204
838.796
991.841
1118.304
1206.636
1250.22
1247.966
1197.948
1099.907
954.46
759.97
530.33
291.112
67.201
-112.029
-236.344
-316.735
-364.098
-394.381
-414.762
-418.767
-405.56
-377.365
-339.723
-303.701
-275.109
-254.559
-241.421
-233.157
-227.38
-222.388
-215.72
-204.869
-188.908
-168.282
-144.111
-117.913
-91.026
-64.5
-39.567
-17.468
1.187
16.237
27.811
36.23
41.648
44.197
44.14
41.838
37.703
32.195
25.756
18.784
11.711
4.873
-1.476
-7.142
-12.064
-16.193
-19.479
-21.853
-23.189
-23.402
-22.482
-20.457
-17.41
-13.494
-8.899
-3.854
1.348
6.499
11.468
16.166
20.584
24.721
28.558
32.084
35.274
38.105
40.574
42.683
44.428
45.848
46.999
47.974
48.907
49.899
51.007
52.275
53.714
55.333
57.14
59.131
61.283
63.585
66.03
68.615
71.348
74.222
77.22
80.316
83.472
86.654
89.834
92.985
96.079
99.09
101.995
104.774
107.418
109.909
112.225
114.343
116.236
117.878
119.247
120.319
121.068
121.473
121.515
121.181
120.458
119.337
117.81
115.87
113.516
110.745
107.56
103.963
99.96
95.557
90.765
85.595
80.063
74.184
67.977
61.462
54.659
47.593
40.286
32.766
25.056
17.185
9.181
1.073
-7.106
-15.328
-23.561
-31.774
-39.937
-48.02
-55.994
-63.834
-71.514
-79.01
-86.301
-93.367
-100.189
-106.752
-113.041
-119.045
-124.753
-130.156
-135.248
-140.023
-144.479
-148.614
-152.427
-155.922
-159.101
-161.97
-164.537
-166.813
-168.808
-170.537
-172.014
-173.258
-174.285
-175.117
-175.773
-176.276
-176.647
-176.908
-177.084
-177.198
-177.27
-177.325
-177.381
-177.46
-177.579
-177.756
-178.006
-178.343
-178.779
-179.325
-179.99
-180.784
-181.712
-182.781
-183.992
-185.347
-186.846
-188.485
-190.26
-192.16
-194.175
-196.292
-198.496
-200.77
-203.096
-205.452
-207.814
-210.16
-212.464
-214.699
-216.838
-218.851
-220.709
-222.385
-223.853
-225.086
-226.061
-226.752
-227.14
-227.207
-226.935
-226.311
-225.323
-223.959
-222.211
-220.075
-217.552
-214.642
-211.351
-207.686
-203.662
-199.299
-194.621
-189.655
-184.428
-178.975
-173.33
-167.535
-161.629
-155.65
-149.637
-143.631
-137.679
-131.828
-126.126
-120.621
-115.358
-110.385
-105.748
-101.493
-97.651
-94.243
-91.29
-88.814
-86.846
-85.425
-84.579
-84.321
-84.665
-85.621
-87.186
-89.339
-92.029
-95.173
-98.695
-102.528
-106.63
-110.962
-115.466
-120.072
-124.693
-129.245
-133.675
-137.929
-141.923
-145.585
-148.903
-151.945
-154.858
-157.828
-160.957
-164.287
-167.889
-171.848
-176.255
-181.201
-186.743
-192.862
-199.69
-207.521
-216.402
-226.229
-236.595
-246.551
-255.203
-261.814
-265.205
-264.218
-258.714
-248.756
-235.141
-220.453
-206.935
-196.644
-193.233
-196.687
-201.822
-205.412
-203.441
-197.781
-200.545
-213.573
-227.342
-220.446
-161.241
-35.106
151.542
376.472
609.583
830.328
1024.25
1178.94
1278.134
1299.221
1229.677
1068.373
831.487
554.353
272.939
25.299
-161.277
-282.805
-347.601
-379.576
-402.597
-424.09
-442.51
-448.26
-434.335
-405.367
-370.948
-340.582
-319.221
-306.595
-300.384
-298.06
-297.945
-297.817
-294.832
-287.472
-275.51
-259.759
-241.726
-222.614
-203.28
-184.866
-168.684
-155.524
-145.661
-138.903
-134.702
-132.595
-132.253
-133.311
-135.303
-137.81
-140.413
-142.681
-144.374
-145.321
-145.362
-144.422
-142.443
-139.375
-135.258
-130.208
-124.332
-117.743
-110.548
-102.816
-94.664
-86.239
-77.697
-69.213
-60.91
-52.858
-45.113
-37.712
-30.677
-24.019
-17.715
-11.711
-5.969
-0.465
4.82
9.891
14.768
19.48
24.057
28.523
32.895
37.183
41.398
45.549
49.64
53.669
57.626
61.499
65.281
68.968
72.557
76.047
79.434
82.711
85.875
88.923
91.847
94.639
97.287
99.779
102.104
104.25
106.205
107.957
109.492
110.799
111.867
112.684
113.239
113.522
113.523
113.235
112.649
111.762
110.57
109.068
107.256
105.135
102.708
99.978
96.951
93.633
90.034
86.164
82.034
77.657
73.048
68.222
63.196
57.989
52.619
47.109
41.48
35.754
29.953
24.103
18.227
12.35
6.495
0.687
-5.051
-10.695
-16.224
-21.614
-26.848
-31.905
-36.768
-41.421
-45.85
-50.043
-53.99
-57.68
-61.109
-64.269
-67.158
-69.774
-72.117
-74.188
-75.991
-77.529
-78.808
-79.834
-80.618
-81.167
-81.492
-81.605
-81.519
-81.249
-80.808
-80.213
-79.481
-78.626
-77.669
-76.626
-75.515
-74.353
-73.159
-71.949
-70.74
-69.548
-68.387
-67.27
-66.21
-65.219
-64.307
-63.484
-62.757
-62.132
-61.615
-61.211
-60.923
-60.753
-60.701
-60.767
-60.949
-61.243
-61.645
-62.149
-62.746
-63.427
-64.182
-65
-65.868
-66.773
-67.7
-68.631
-69.551
-70.442
-71.287
-72.067
-72.763
-73.357
-73.83
-74.166
-74.348
-74.361
-74.187
-73.811
-73.221
-72.404
-71.349
-70.046
-68.487
-66.664
-64.574
-62.214
-59.587
-56.696
-53.546
-50.148
-46.515
-42.661
-38.605
-34.366
-29.965
-25.426
-20.774
-16.034
-11.232
-6.397
-1.559
3.25
7.995
12.643
17.16
21.508
25.65
29.548
33.166
36.483
39.476
42.118
44.379
46.216
47.598
48.513
48.955
48.912
48.387
47.383
45.935
44.122
42.022
39.705
37.227
34.61
31.891
29.132
26.411
23.814
21.399
19.164
17.104
15.248
13.61
12.175
10.82
9.278
7.305
4.723
1.42
-2.616
-7.472
-13.347
-20.383
-28.701
-38.368
-49.259
-61.392
-75.025
-90.106
-106.27
-122.775
-138.261
-151.414
-161.335
-166.952
-167.196
-161.782
-150.999
-136.033
-119.179
-103.235
-91.112
-85.052
-86.559
-93.139
-98.497
-99.251
-92.313
-77.977
-62.059
-38.397
5.578
84.173
218.262
409.035
640.038
883.742
1097.471
1250.898
1330.2
1339.266
1297.669
1217.444
1100.932
940.042
728.419
480.726
228.743
10.443
-148.109
-246.447
-304.352
-344.681
-379.708
-407.608
-417.272
-402.342
-366.475
-319.396
-273.159
-234.535
-204.458
-182.193
-166.204
-155.14
-147.635
-141.194
-132.91
-121.511
-107.18
-90.608
-72.885
-54.879
-37.256
-21.131
-7.769
2.256
8.944
12.658
14.078
13.717
11.931
9.194
6.016
2.887
0.263
-1.605
-2.626
-2.734
-1.894
-0.064
2.797
6.629
11.307
16.702
22.679
29.127
35.96
43.049
50.254
57.422
64.394
71.071
77.401
83.345
88.889
94.023
98.741
103.077
107.085
110.807
114.277
117.519
120.547
123.387
126.079
128.652
131.138
133.557
135.924
138.255
140.561
142.851
145.126
147.384
149.618
151.826
154.007
156.162
158.291
160.391
162.457
164.485
166.471
168.407
170.28
172.078
173.787
175.393
176.88
178.235
179.44
180.481
181.342
182.008
182.464
182.697
182.69
182.431
181.906
181.105
180.017
178.631
176.938
174.931
172.605
169.955
166.98
163.678
160.05
156.1
151.833
147.258
142.385
137.225
131.793
126.105
120.181
114.041
107.707
101.205
94.558
87.794
80.939
74.022
67.07
60.112
53.175
46.288
39.478
32.771
26.195
19.773
13.53
7.489
1.672
-3.901
-9.21
-14.238
-18.97
-23.392
-27.492
-31.26
-34.69
-37.778
-40.522
-42.922
-44.981
-46.705
-48.102
-49.182
-49.958
-50.443
-50.655
-50.611
-50.33
-49.835
-49.146
-48.287
-47.281
-46.153
-44.925
-43.624
-42.273
-40.896
-39.515
-38.153
-36.833
-35.576
-34.402
-33.331
-32.381
-31.567
-30.906
-30.409
-30.089
-29.954
-30.01
-30.261
-30.708
-31.351
-32.187
-33.207
-34.404
-35.767
-37.282
-38.937
-40.714
-42.594
-44.557
-46.583
-48.648
-50.732
-52.808
-54.853
-56.841
-58.749
-60.552
-62.228
-63.753
-65.104
-66.258
-67.196
-67.9
-68.353
-68.539
-68.443
-68.055
-67.367
-66.375
-65.077
-63.474
-61.568
-59.367
-56.889
-54.149
-51.168
-47.966
-44.568
-41.003
-37.302
-33.496
-29.611
-25.674
-21.716
-17.769
-13.87
-10.054
-6.356
-2.811
0.544
3.671
6.533
9.106
11.377
13.328
14.945
16.201
17.057
17.492
17.493
17.046
16.141
14.779
12.978
10.79
8.298
5.578
2.693
-0.316
-3.419
-6.565
-9.687
-12.706
-15.551
-18.178
-20.542
-22.582
-24.229
-25.481
-26.454
-27.329
-28.313
-29.563
-31.141
-33.083
-35.503
-38.497
-42.031
-46.128
-50.8
-56.119
-62.421
-69.962
-78.657
-88.104
-97.872
-107.322
-115.151
-120.104
-121.123
-116.872
-109.176
-100.939
-91.383
-82.276
-71.788
-54.656
-35.335
-15.87
-1.111
-6.34
-37.027
-91.238
-157.818
-202.972
-190.039
-99.53
71.803
302.659
556.741
807.493
1034.476
1220.173
1349.724
1406.916
1379.438
1267.188
1086.48
858.354
607.911
362.617
138.514
-50.147
-197.394
-311.585
-398.331
-465.2
-514.716
-538.977
-535.252
-504.298
-451.997
-391.009
-330.661
-275.665
-228.981
-191.746
-164.946
-150.145
-147.039
-153.258
-165.799
-182.36
-200.809
-218.705
-234.18
-245.242
-250.628
-250.629
-246.161
-238.143
-227.905
-217.118
-206.885
-198.214
-191.748
-187.343
-184.663
-183.21
-182.195
-180.754
-178.366
-174.724
-169.71
-163.447
-156.018
-147.523
-138.167
-128.17
-117.687
-106.806
-95.58
-84.039
-72.281
-60.463
-48.717
-37.143
-25.81
-14.753
-4.004
6.403
16.453
26.159
35.535
44.582
53.295
61.652
69.642
77.268
84.549
91.503
98.149
104.501
110.569
116.364
121.892
127.153
132.145
136.858
141.292
145.451
149.339
152.964
156.335
159.455
162.333
164.974
167.382
169.558
171.502
173.211
174.685
175.923
176.926
177.69
178.214
178.495
178.53
178.316
177.85
177.128
176.143
174.892
173.37
171.575
169.504
167.155
164.527
161.621
158.437
154.978
151.248
147.249
142.987
138.468
133.698
128.687
123.443
117.978
112.302
106.432
100.381
94.169
87.812
81.329
74.741
68.068
61.332
54.555
47.758
40.965
34.198
27.48
20.835
14.284
7.851
1.555
-4.582
-10.542
-16.306
-21.857
-27.181
-32.263
-37.091
-41.654
-45.943
-49.948
-53.663
-57.085
-60.211
-63.04
-65.574
-67.815
-69.772
-71.45
-72.86
-74.013
-74.923
-75.604
-76.073
-76.345
-76.441
-76.378
-76.178
-75.86
-75.446
-74.957
-74.415
-73.841
-73.256
-72.679
-72.129
-71.625
-71.183
-70.819
-70.546
-70.378
-70.327
-70.403
-70.614
-70.968
-71.469
-72.121
-72.923
-73.875
-74.972
-76.207
-77.57
-79.05
-80.633
-82.303
-84.043
-85.835
-87.658
-89.49
-91.311
-93.098
-94.827
-96.473
-98.013
-99.424
-100.684
-101.769
-102.66
-103.338
-103.786
-103.989
-103.935
-103.613
-103.013
-102.129
-100.955
-99.487
-97.726
-95.674
-93.335
-90.715
-87.827
-84.685
-81.313
-77.738
-73.988
-70.094
-66.089
-62.013
-57.901
-53.791
-49.712
-45.692
-41.763
-37.957
-34.309
-30.853
-27.622
-24.645
-21.954
-19.576
-17.532
-15.839
-14.504
-13.521
-12.896
-12.634
-12.756
-13.301
-14.3
-15.767
-17.71
-20.127
-22.997
-26.291
-29.948
-33.875
-37.984
-42.186
-46.4
-50.574
-54.643
-58.536
-62.168
-65.411
-68.137
-70.278
-71.817
-72.755
-73.147
-73.023
-72.434
-71.568
-70.633
-69.823
-69.326
-69.238
-69.613
-70.66
-72.726
-76.036
-80.725
-86.627
-93.129
-99.616
-105.494
-109.851
-111.648
-110.289
-105.453
-97.403
-87.976
-79.522
-74.36
-75.889
-84.739
-96.683
-107.79
-113.356
-113.416
-119.479
-138.62
-170.308
-202.932
-200.159
-128.027
34.552
295.019
615.736
940.615
1212.69
1370.844
1401.596
1325.199
1171.215
991.74
810.976
627.785
448.709
266.01
85.845
-69.282
-196.356
-290.668
-353.045
-395.869
-417.81
-418.438
-402.061
-370.434
-332.472
-297.333
-268.148
-246.492
-231.797
-222.229
-216.75
-213.92
-211.186
-205.799
-196.393
-183.029
-166.504
-148.097
-128.884
-109.645
-91.488
-75.705
-62.985
-53.484
-47.017
-43.037
-41.081
-40.863
-41.989
-44.014
-46.563
-49.231
-51.666
-53.698
-55.186
-56.015
-56.143
-55.501
-54.06
-51.886
-49.077
-45.737
-41.98
-37.889
-33.534
-29.022
-24.469
-20.006
-15.767
-11.83
-8.235
-5.007
-2.151
0.334
2.462
4.283
5.864
7.26
8.516
9.665
10.732
11.756
12.78
13.841
14.972
16.2
17.54
19.01
20.623
22.384
24.293
26.343
28.522
30.82
33.23
35.743
38.35
41.038
43.791
46.594
49.43
52.279
55.116
57.917
60.652
63.295
65.817
68.191
70.387
72.377
74.135
75.636
76.855
77.77
78.359
78.605
78.491
78.003
77.13
75.864
74.196
72.124
69.648
66.768
63.492
59.824
55.777
51.361
46.594
41.493
36.077
30.368
24.391
18.172
11.739
5.123
-1.646
-8.535
-15.51
-22.538
-29.584
-36.616
-43.599
-50.502
-57.295
-63.948
-70.434
-76.726
-82.802
-88.639
-94.217
-99.519
-104.53
-109.235
-113.625
-117.692
-121.43
-124.835
-127.906
-130.645
-133.056
-135.144
-136.918
-138.387
-139.563
-140.459
-141.089
-141.471
-141.622
-141.56
-141.306
-140.879
-140.302
-139.595
-138.78
-137.876
-136.904
-135.883
-134.832
-133.768
-132.708
-131.667
-130.659
-129.696
-128.793
-127.959
-127.203
-126.532
-125.953
-125.47
-125.085
-124.799
-124.61
-124.515
-124.508
-124.584
-124.737
-124.956
-125.233
-125.553
-125.907
-126.279
-126.656
-127.022
-127.36
-127.653
-127.883
-128.037
-128.096
-128.046
-127.871
-127.555
-127.087
-126.455
-125.648
-124.656
-123.467
-122.074
-120.473
-118.66
-116.633
-114.392
-111.936
-109.275
-106.418
-103.379
-100.173
-96.815
-93.322
-89.715
-86.019
-82.254
-78.439
-74.593
-70.737
-66.896
-63.101
-59.378
-55.754
-52.258
-48.919
-45.766
-42.832
-40.132
-37.673
-35.467
-33.525
-31.87
-30.54
-29.554
-28.921
-28.655
-28.763
-29.24
-30.072
-31.207
-32.565
-34.075
-35.679
-37.338
-39.031
-40.708
-42.314
-43.781
-45.041
-46.057
-46.799
-47.21
-47.242
-46.919
-46.334
-45.662
-45.127
-44.868
-44.968
-45.54
-46.697
-48.549
-51.186
-54.641
-58.894
-64.087
-70.498
-78.192
-87.076
-96.726
-106.318
-115.131
-122.43
-127.007
-127.6
-123.76
-115.378
-103.129
-89.034
-74.771
-62.389
-55.678
-55.068
-55.953
-54.546
-45.562
-31.634
-28.779
-43.123
-71.421
-94.424
-69.938
27.804
206.656
457.897
741.218
1018.735
1255.935
1414.655
1480.02
1448.72
1328.433
1144.487
916.334
660.519
395.486
140.89
-75.347
-232.768
-326.029
-368.231
-388.622
-406.4
-428.134
-448.456
-451.34
-432.019
-394.308
-344.491
-293.344
-245.51
-200.753
-160.663
-125.806
-96.557
-75.212
-62.303
-56.263
-56.495
-61.655
-69.013
-77.137
-84.656
-89.217
-89.883
-86.878
-80.28
-71.319
-61.975
-53.056
-45.215
-39.392
-35.687
-33.896
-33.8
-34.507
-34.947
-34.654
-33.368
-30.913
-27.424
-22.975
-17.605
-11.565
-5.118
1.579
8.416
15.341
22.345
29.336
36.179
42.78
49.061
54.984
60.548
65.752
70.599
75.113
79.332
83.287
87
90.483
93.739
96.774
99.603
102.247
104.731
107.081
109.32
111.468
113.536
115.532
117.457
119.308
121.083
122.779
124.4
125.946
127.422
128.831
130.174
131.454
132.67
133.818
134.889
135.877
136.771
137.564
138.246
138.808
139.24
139.533
139.678
139.666
139.49
139.14
138.606
137.88
136.955
135.822
134.474
132.907
131.114
129.092
126.838
124.353
121.637
118.691
115.519
112.125
108.516
104.699
100.684
96.479
92.098
87.553
82.859
78.034
73.094
68.059
62.946
57.775
52.566
47.338
42.109
36.9
31.728
26.612
21.57
16.619
11.777
7.06
2.484
-1.937
-6.188
-10.259
-14.137
-17.814
-21.281
-24.533
-27.565
-30.373
-32.956
-35.314
-37.449
-39.365
-41.066
-42.56
-43.855
-44.96
-45.888
-46.65
-47.259
-47.728
-48.072
-48.305
-48.441
-48.496
-48.482
-48.415
-48.309
-48.179
-48.039
-47.903
-47.783
-47.693
-47.645
-47.649
-47.716
-47.855
-48.073
-48.375
-48.768
-49.253
-49.833
-50.507
-51.272
-52.124
-53.057
-54.065
-55.139
-56.268
-57.44
-58.64
-59.857
-61.075
-62.28
-63.454
-64.58
-65.643
-66.627
-67.515
-68.291
-68.937
-69.438
-69.778
-69.945
-69.924
-69.706
-69.277
-68.627
-67.751
-66.644
-65.302
-63.725
-61.913
-59.871
-57.609
-55.138
-52.473
-49.63
-46.627
-43.486
-40.229
-36.883
-33.469
-30.009
-26.53
-23.056
-19.618
-16.244
-12.962
-9.803
-6.8
-3.985
-1.39
0.96
3.058
4.887
6.429
7.664
8.56
9.102
9.29
9.113
8.561
7.634
6.34
4.724
2.865
0.825
-1.351
-3.637
-6.024
-8.467
-10.904
-13.267
-15.504
-17.604
-19.572
-21.367
-22.926
-24.227
-25.326
-26.4
-27.66
-29.236
-31.165
-33.421
-36.033
-39.118
-42.781
-47.101
-52.073
-57.573
-63.683
-70.734
-78.801
-87.739
-97.005
-105.409
-111.896
-115.807
-116.176
-112.064
-103.434
-90.363
-73.784
-56.653
-41.94
-32.459
-31.843
-39.449
-49.673
-58.756
-61.936
-61.699
-70.397
-90.153
-116.195
-127.502
-85.583
33.087
239.186
516.76
816.893
1091.795
1292.92
1387.774
1378.799
1276.901
1103.91
888.554
645.896
396.244
167.851
-20.186
-152.229
-227.045
-266.328
-290.301
-310.126
-328.1
-333.839
-320.525
-292.27
-257.979
-228.141
-208.482
-198.864
-196.859
-199.413
-204.362
-209.219
-210.868
-207.488
-198.449
-184.194
-166.223
-145.985
-124.597
-103.439
-83.921
-66.852
-52.62
-41.217
-32.227
-25.302
-20.171
-16.466
-13.851
-12.091
-10.958
-10.226
-9.654
-8.927
-7.794
-6.109
-3.765
-0.705
3.105
7.675
12.94
18.787
25.114
31.829
38.87
46.184
53.682
61.257
68.786
76.145
83.25
90.052
96.513
102.614
108.352
113.738
118.813
123.632
128.235
132.651
136.9
140.997
144.968
148.842
152.642
156.39
160.103
163.791
167.465
171.132
174.789
178.432
182.05
185.631
189.164
192.639
196.046
199.376
202.618
205.759
208.787
211.688
214.447
217.048
219.472
221.7
223.717
225.504
227.045
228.323
229.323
230.031
230.433
230.516
230.269
229.682
228.747
227.46
225.815
223.81
221.446
218.725
215.65
212.228
208.467
204.376
199.969
195.257
190.259
184.992
179.477
173.735
167.79
161.667
155.391
148.992
142.497
135.934
129.334
122.726
116.138
109.6
103.141
96.788
90.567
84.505
78.626
72.951
67.502
62.298
57.356
52.691
48.317
44.244
40.481
37.036
33.912
31.112
28.637
26.481
24.64
23.106
21.867
20.911
20.222
19.783
19.574
19.574
19.76
20.108
20.591
21.184
21.859
22.588
23.344
24.098
24.823
25.492
26.078
26.558
26.907
27.104
27.125
26.952
26.565
25.948
25.085
23.965
22.574
20.905
18.952
16.713
14.188
11.379
8.292
4.933
1.313
-2.555
-6.654
-10.968
-15.476
-20.156
-24.984
-29.933
-34.974
-40.08
-45.222
-50.371
-55.497
-60.569
-65.559
-70.44
-75.186
-79.772
-84.173
-88.363
-92.321
-96.028
-99.467
-102.622
-105.479
-108.027
-110.262
-112.184
-113.798
-115.11
-116.127
-116.861
-117.327
-117.546
-117.534
-117.308
-116.884
-116.284
-115.535
-114.669
-113.718
-112.713
-111.688
-110.677
-109.715
-108.839
-108.072
-107.428
-106.923
-106.578
-106.427
-106.519
-106.89
-107.563
-108.565
-109.912
-111.607
-113.643
-115.981
-118.549
-121.282
-124.13
-127.056
-130.044
-133.057
-136.036
-138.92
-141.641
-144.149
-146.416
-148.382
-150.018
-151.379
-152.559
-153.729
-155.087
-156.753
-158.856
-161.54
-164.916
-169.1
-174.199
-180.269
-187.464
-196.055
-206.091
-217.515
-230.07
-243.026
-255.637
-267.101
-276.173
-281.582
-282.861
-279.942
-273.201
-264.479
-255.8
-249.292
-248.682
-254.85
-263.775
-271.971
-275.768
-277.516
-288.764
-312.52
-340.876
-352.678
-314.912
-209.822
-38.59
183.652
427.999
667.421
882.069
1047.396
1140.08
1152.866
1081.791
939.183
755.628
543.93
321.626
109.359
-88.749
-254.04
-376.162
-464.957
-524.734
-567.617
-601.611
-619.659
-618.759
-599.01
-564.91
-527.541
-494.604
-468.741
-449.751
-435.591
-425.143
-417.73
-411.752
-405.016
-395.198
-381.377
-364.156
-344.594
-323.829
-302.76
-282.12
-262.869
-246.075
-232.25
-221.387
-213.185
-207.09
-202.658
-199.589
-197.554
-196.169
-195.064
-193.88
-192.306
-190.178
-187.401
-183.901
-179.632
-174.548
-168.656
-162.028
-154.781
-147.044
-138.923
-130.506
-121.871
-113.121
-104.38
-95.78
-87.447
-79.46
-71.858
-64.666
-57.896
-51.552
-45.616
-40.045
-34.778
-29.767
-24.973
-20.37
-15.931
-11.623
-7.407
-3.25
0.88
5.006
9.144
13.311
17.517
21.767
26.061
30.391
34.746
39.118
43.5
47.882
52.257
56.613
60.939
65.222
69.449
73.602
77.665
81.617
85.437
89.104
92.598
95.897
98.979
101.825
104.413
106.724
108.74
110.443
111.816
112.845
113.517
113.822
113.75
113.297
112.459
111.237
109.632
107.652
105.304
102.601
99.555
96.183
92.504
88.538
84.31
79.841
75.158
70.287
65.258
60.099
54.84
49.512
44.145
38.769
33.416
28.115
22.896
17.787
12.816
8.008
3.39
-1.017
-5.189
-9.11
-12.761
-16.128
-19.201
-21.971
-24.433
-26.584
-28.426
-29.962
-31.2
-32.149
-32.82
-33.229
-33.391
-33.326
-33.052
-32.592
-31.966
-31.2
-30.318
-29.344
-28.302
-27.218
-26.118
-25.025
-23.964
-22.959
-22.033
-21.208
-20.504
-19.941
-19.539
-19.312
-19.275
-19.439
-19.814
-20.405
-21.217
-22.248
-23.495
-24.952
-26.611
-28.46
-30.485
-32.67
-34.994
-37.438
-39.98
-42.594
-45.255
-47.936
-50.608
-53.242
-55.811
-58.287
-60.641
-62.844
-64.868
-66.687
-68.276
-69.612
-70.671
-71.431
-71.873
-71.98
-71.74
-71.143
-70.18
-68.849
-67.148
-65.088
-62.68
-59.938
-56.878
-53.521
-49.892
-46.019
-41.932
-37.655
-33.218
-28.651
-23.989
-19.273
-14.542
-9.833
-5.188
-0.648
3.746
7.952
11.94
15.691
19.182
22.39
25.28
27.807
29.939
31.656
32.938
33.769
34.146
34.081
33.618
32.83
31.783
30.529
29.097
27.508
25.801
24.027
22.258
20.563
18.977
17.54
16.312
15.354
14.67
14.184
13.736
13.129
12.243
11.041
9.478
7.461
4.887
1.669
-2.251
-6.828
-12.122
-18.432
-25.876
-34.298
-43.235
-51.754
-58.939
-64.093
-66.242
-64.243
-57.712
-46.996
-33.317
-18.847
-5.674
3.911
7.077
1.559
-10.47
-22.859
-29.175
-24.84
-15.491
-10.99
-13.094
-14.007
11.861
93.748
246.352
469.807
737.269
1008.104
1244.372
1406.512
1472.3
1438.097
1307.288
1103.26
859.228
603.808
370.534
181.472
38.876
-60.776
-133.489
-195.771
-251.136
-296.919
-324.017
-326.531
-307.523
-275.815
-243.447
-217.477
-199.642
-189.652
-185.341
-184.966
-187.41
-189.967
-189.452
-184.339
-174.225
-159.757
-142.433
-123.435
-103.691
-84.506
-67.252
-52.709
-41.21
-32.646
-26.538
-22.507
-20.255
-19.426
-19.641
-20.555
-21.838
-23.15
-24.203
-24.771
-24.681
-23.825
-22.143
-19.595
-16.181
-11.976
-7.093
-1.644
4.258
10.528
17.091
23.831
30.616
37.302
43.741
49.836
55.528
60.772
65.545
69.841
73.668
77.067
80.101
82.813
85.238
87.403
89.329
91.05
92.606
94.032
95.362
96.625
97.842
99.036
100.226
101.422
102.632
103.855
105.088
106.331
107.586
108.853
110.134
111.429
112.735
114.048
115.365
116.68
117.981
119.259
120.499
121.689
122.814
123.86
124.811
125.652
126.367
126.94
127.357
127.601
127.658
127.512
127.15
126.561
125.733
124.657
123.325
121.731
119.871
117.744
115.35
112.691
109.769
106.592
103.167
99.503
95.61
91.502
87.19
82.69
78.017
73.189
68.221
63.132
57.94
52.662
47.317
41.923
36.499
31.063
25.632
20.224
14.857
9.546
4.308
-0.843
-5.895
-10.835
-15.652
-20.339
-24.889
-29.297
-33.56
-37.677
-41.648
-45.475
-49.163
-52.717
-56.145
-59.454
-62.653
-65.752
-68.761
-71.691
-74.552
-77.353
-80.105
-82.817
-85.498
-88.157
-90.805
-93.447
-96.093
-98.751
-101.426
-104.127
-106.858
-109.624
-112.427
-115.27
-118.154
-121.077
-124.037
-127.027
-130.043
-133.076
-136.117
-139.156
-142.178
-145.171
-148.118
-151.003
-153.81
-156.52
-159.115
-161.577
-163.888
-166.031
-167.991
-169.751
-171.297
-172.613
-173.686
-174.506
-175.061
-175.344
-175.344
-175.053
-174.467
-173.584
-172.404
-170.929
-169.162
-167.112
-164.791
-162.217
-159.405
-156.378
-153.156
-149.763
-146.227
-142.576
-138.832
-135.024
-131.177
-127.322
-123.492
-119.722
-116.041
-112.487
-109.092
-105.891
-102.921
-100.207
-97.761
-95.601
-93.745
-92.218
-91.063
-90.305
-89.953
-90.02
-90.513
-91.424
-92.738
-94.398
-96.305
-98.372
-100.522
-102.696
-104.869
-106.987
-108.975
-110.761
-112.255
-113.417
-114.25
-114.719
-114.776
-114.429
-113.76
-112.977
-112.377
-112.194
-112.574
-113.614
-115.439
-118.23
-122.146
-127.335
-133.889
-141.761
-151.046
-161.984
-174.504
-188.342
-202.889
-216.857
-229.02
-238.517
-244.154
-244.842
-240.484
-231.044
-217.173
-201.638
-187.187
-175.597
-169.532
-168.412
-166.525
-162.872
-157.663
-151.597
-153.286
-156.611
-140.955
-88.667
21.815
189.189
383.197
579.617
755.34
901.158
1031.368
1141.624
1216.401
1241.634
1191.991
1067.79
887.737
659.837
406.25
144.906
-109.348
-319.17
-462.558
-534.85
-544.421
-524.763
-500.32
-480.503
-466.555
-448.532
-423.862
-396.939
-371.959
-354.576
-345.534
-341.596
-340.233
-338.007
-331.683
-320.279
-303.665
-282.509
-258.559
-233.365
-208.054
-183.947
-162.34
-143.9
-128.914
-117.294
-108.493
-102.046
-97.584
-94.663
-92.9
-91.936
-91.379
-90.867
-90.085
-88.776
-86.779
-84
-80.361
-75.836
-70.443
-64.255
-57.406
-50.021
-42.208
-34.064
-25.672
-17.15
-8.642
-0.302
7.723
15.33
22.464
29.087
35.178
40.738
45.79
50.383
54.588
58.458
62.032
65.343
68.419
71.298
74.025
76.64
79.182
81.679
84.16
86.646
89.157
91.704
94.294
96.926
99.596
102.303
105.049
107.832
110.655
113.514
116.406
119.327
122.27
125.227
128.186
131.131
134.047
136.918
139.725
142.451
145.076
147.583
149.953
152.167
154.21
156.063
157.71
159.137
160.33
161.277
161.969
162.394
162.546
162.421
162.013
161.323
160.35
159.095
157.564
155.761
153.694
151.374
148.809
146.014
143.002
139.788
136.389
132.825
129.115
125.278
121.337
117.311
113.225
109.098
104.952
100.808
96.685
92.604
88.58
84.632
80.774
77.02
73.382
69.872
66.496
63.264
60.18
57.248
54.471
51.847
49.376
47.055
44.879
42.842
40.934
39.147
37.471
35.893
34.4
32.979
31.616
30.294
28.998
27.714
26.425
25.115
23.768
22.371
20.909
19.369
17.74
16.011
14.172
12.215
10.135
7.928
5.589
3.118
0.515
-2.218
-5.076
-8.053
-11.14
-14.327
-17.605
-20.959
-24.373
-27.831
-31.314
-34.803
-38.28
-41.72
-45.103
-48.405
-51.603
-54.674
-57.597
-60.347
-62.902
-65.242
-67.348
-69.203
-70.791
-72.099
-73.113
-73.824
-74.225
-74.313
-74.085
-73.542
-72.685
-71.523
-70.071
-68.345
-66.363
-64.146
-61.717
-59.105
-56.34
-53.45
-50.463
-47.405
-44.306
-41.202
-38.131
-35.131
-32.236
-29.482
-26.905
-24.541
-22.425
-20.582
-19.025
-17.769
-16.832
-16.243
-16.045
-16.264
-16.916
-18.013
-19.562
-21.553
-23.973
-26.777
-29.89
-33.247
-36.79
-40.473
-44.264
-48.107
-51.926
-55.636
-59.146
-62.387
-65.309
-67.835
-69.915
-71.578
-72.895
-74.005
-75.081
-76.206
-77.468
-79.012
-80.999
-83.612
-87.012
-91.232
-96.353
-102.643
-110.232
-119.055
-128.72
-138.321
-147.039
-154.419
-159.805
-162.197
-160.986
-156.108
-148.427
-140.055
-132.565
-126.695
-123.897
-126.138
-134.582
-146.856
-156.463
-156.078
-141.934
-119.374
-97.504
-77.235
-49.54
4.998
107.256
262.417
460.013
681.997
906.465
1111.607
1278.879
1385.044
1403.783
1325.482
1153.455
903.343
609.523
303.02
12.153
-228.988
-399.17
-491.063
-509.692
-481.474
-437.496
-396.124
-366.321
-345.003
-322.906
-298.786
-275.432
-256.616
-247.082
-246.049
-249.318
-252.825
-252.178
-245.196
-231.947
-213.027
-189.745
-163.839
-136.885
-110.557
-86.509
-65.592
-48.057
-33.854
-22.578
-13.821
-7.248
-2.411
1.158
3.775
5.736
7.34
8.848
10.591
12.845
15.761
19.444
23.941
29.253
35.352
42.163
49.563
57.436
65.684
74.212
82.935
91.74
100.487
109.035
117.243
125.012
132.283
139.013
145.186
150.805
155.89
160.486
164.652
168.431
171.853
174.947
177.735
180.25
182.529
184.604
186.508
188.269
189.909
191.449
192.906
194.289
195.606
196.859
198.048
199.177
200.252
201.28
202.266
203.218
204.138
205.03
205.896
206.734
207.541
208.312
209.04
209.716
210.335
210.885
211.359
211.746
212.037
212.222
212.292
212.234
212.04
211.7
211.205
210.548
209.72
208.715
207.527
206.152
204.586
202.825
200.868
198.712
196.357
193.804
191.053
188.109
184.975
181.658
178.163
174.5
170.679
166.713
162.615
158.399
154.081
149.676
145.202
140.675
136.114
131.534
126.955
122.393
117.865
113.388
108.977
104.648
100.413
96.287
92.28
88.402
84.664
81.072
77.635
74.356
71.241
68.293
65.513
62.902
60.459
58.18
56.061
54.096
52.276
50.593
49.034
47.588
46.242
44.98
43.788
42.649
41.549
40.47
39.395
38.308
37.193
36.034
34.816
33.526
32.149
30.675
29.094
27.399
25.582
23.64
21.569
19.367
17.036
14.578
11.995
9.293
6.48
3.565
0.559
-2.522
-5.665
-8.849
-12.055
-15.261
-18.443
-21.576
-24.636
-27.597
-30.433
-33.118
-35.623
-37.922
-39.99
-41.8
-43.329
-44.552
-45.448
-45.996
-46.183
-45.995
-45.422
-44.458
-43.095
-41.334
-39.176
-36.624
-33.685
-30.366
-26.678
-22.636
-18.259
-13.572
-8.602
-3.383
2.048
7.649
13.379
19.192
25.043
30.891
36.697
42.42
48.023
53.463
58.702
63.7
68.42
72.822
76.874
80.543
83.808
86.653
89.061
91.022
92.529
93.569
94.124
94.167
93.652
92.55
90.847
88.534
85.616
82.109
78.035
73.446
68.429
63.066
57.452
51.671
45.775
39.84
33.96
28.261
22.9
17.958
13.473
9.48
6.03
3.21
1.056
-0.551
-1.848
-3.063
-4.442
-6.142
-8.361
-11.561
-15.974
-21.559
-28.146
-35.05
-41.455
-46.866
-50.571
-51.578
-49.81
-45.936
-40.951
-37.006
-36.865
-42.982
-57.66
-83.197
-117.539
-154.003
-189.317
-219.98
-244.736
-269.474
-285.454
-275.633
-226.723
-118.247
47.839
250.742
471.884
676.098
841.291
959.175
1019.345
1034.904
1011.394
945.587
841.255
685.543
483.926
263.851
48.541
-128.134
-251.911
-336.946
-394.667
-441.367
-483.768
-510.55
-516.753
-501.691
-469.324
-431.847
-397.547
-369.21
-347.65
-331.504
-319.456
-310.832
-304.069
-296.64
-286.025
-271.168
-252.37
-230.411
-206.39
-181.202
-155.59
-130.778
-108.104
-88.284
-71.491
-57.521
-45.937
-36.492
-29.171
-23.912
-20.508
-18.645
-17.939
-18.125
-19.049
-20.544
-22.373
-24.185
-25.667
-26.649
-27.101
-27.073
-26.566
-25.513
-23.788
-21.266
-17.909
-13.776
-8.949
-3.484
2.555
9.08
15.927
22.835
29.607
36.146
42.415
48.424
54.145
59.514
64.468
68.964
72.984
76.525
79.577
82.113
84.137
85.681
86.816
87.659
88.287
88.736
89.029
89.172
89.177
89.064
88.835
88.476
87.978
87.344
86.581
85.71
84.733
83.644
82.43
81.072
79.557
77.879
76.033
74.013
71.82
69.456
66.927
64.248
61.428
58.468
55.373
52.141
48.77
45.264
41.619
37.834
33.907
29.84
25.636
21.299
16.833
12.239
7.521
2.685
-2.266
-7.326
-12.493
-17.761
-23.123
-28.573
-34.101
-39.699
-45.358
-51.07
-56.825
-62.613
-68.424
-74.247
-80.074
-85.893
-91.693
-97.462
-103.187
-108.854
-114.45
-119.962
-125.376
-130.676
-135.851
-140.887
-145.771
-150.493
-155.043
-159.409
-163.581
-167.551
-171.312
-174.857
-178.182
-181.281
-184.152
-186.795
-189.209
-191.397
-193.361
-195.103
-196.626
-197.937
-199.041
-199.948
-200.665
-201.203
-201.573
-201.789
-201.863
-201.813
-201.652
-201.395
-201.058
-200.657
-200.207
-199.727
-199.231
-198.736
-198.255
-197.805
-197.4
-197.054
-196.776
-196.576
-196.461
-196.436
-196.506
-196.67
-196.926
-197.271
-197.703
-198.221
-198.821
-199.499
-200.246
-201.056
-201.921
-202.83
-203.767
-204.708
-205.627
-206.502
-207.313
-208.043
-208.67
-209.174
-209.533
-209.731
-209.761
-209.611
-209.259
-208.668
-207.797
-206.629
-205.174
-203.461
-201.509
-199.334
-196.952
-194.398
-191.725
-188.968
-186.132
-183.177
-180.056
-176.758
-173.311
-169.779
-166.225
-162.668
-159.076
-155.411
-151.668
-147.847
-143.93
-139.848
-135.504
-130.872
-126.039
-121.182
-116.473
-112.015
-107.842
-103.95
-100.367
-97.165
-94.456
-92.334
-90.839
-90.026
-89.986
-90.87
-92.839
-95.927
-99.985
-104.759
-110.014
-115.591
-121.403
-127.375
-133.386
-139.302
-144.985
-150.333
-155.283
-159.745
-163.617
-166.806
-169.23
-170.929
-172.097
-172.966
-173.794
-174.82
-176.172
-177.969
-180.367
-183.438
-187.395
-192.556
-198.9
-206.268
-214.344
-222.375
-229.633
-235.489
-238.763
-238.225
-233.658
-225.162
-213.432
-200.678
-189.293
-181.542
-180.335
-185.396
-191.632
-194.747
-192.898
-190.605
-197.675
-215.886
-231.723
-216.397
-140.902
6.58
212.057
437.223
643.679
806.847
917.93
983.841
1010.394
996.328
938.731
834.688
687.645
508.395
310.469
107.852
-86.82
-262.282
-408.979
-520.156
-592.958
-628.766
-632.015
-608.827
-566.275
-512.173
-454.546
-400.634
-354.988
-319.34
-293.664
-276.602
-266.23
-260.253
-255.651
-249.413
-240.099
-227.528
-212.215
-195.258
-177.602
-160.077
-143.852
-130.075
-119.245
-111.355
-106.025
-102.62
-100.666
-99.764
-99.447
-99.225
-98.63
-97.365
-95.31
-92.448
-88.788
-84.329
-79.052
-72.986
-66.244
-58.947
-51.223
-43.189
-34.929
-26.559
-18.207
-10.011
-2.114
5.387
12.448
19.043
25.163
30.815
36.006
40.766
45.158
49.233
53.035
56.607
59.974
63.175
66.258
69.268
72.246
75.227
78.236
81.295
84.426
87.646
90.964
94.385
97.906
101.528
105.253
109.083
113.018
117.054
121.183
125.399
129.692
134.049
138.453
142.881
147.312
151.721
156.082
160.37
164.557
168.615
172.516
176.232
179.738
183.006
186.011
188.728
191.135
193.209
194.93
196.282
197.246
197.811
197.964
197.699
197.008
195.89
194.345
192.373
189.981
187.177
183.97
180.374
176.402
172.074
167.408
162.43
157.163
151.636
145.877
139.918
133.789
127.525
121.157
114.718
108.241
101.759
95.302
88.903
82.591
76.396
70.345
64.464
58.779
53.312
48.083
43.112
38.414
34.004
29.893
26.092
22.607
19.445
16.608
14.098
11.916
10.057
8.518
7.292
6.371
5.743
5.396
5.315
5.483
5.884
6.498
7.306
8.288
9.422
10.687
12.062
13.523
15.05
16.619
18.208
19.795
21.358
22.878
24.335
25.71
26.987
28.148
29.18
30.071
30.807
31.377
31.772
31.983
32.003
31.827
31.451
30.874
30.095
29.118
27.946
26.588
25.051
23.346
21.482
19.472
17.333
15.078
12.726
10.293
7.799
5.264
2.71
0.159
-2.365
-4.843
-7.252
-9.57
-11.777
-13.851
-15.774
-17.531
-19.105
-20.48
-21.64
-22.573
-23.269
-23.721
-23.921
-23.864
-23.549
-22.976
-22.156
-21.098
-19.814
-18.318
-16.625
-14.756
-12.732
-10.576
-8.305
-5.939
-3.501
-1.018
1.48
3.963
6.402
8.767
11.024
13.14
15.083
16.83
18.372
19.693
20.778
21.601
22.123
22.326
22.201
21.735
20.919
19.755
18.257
16.474
14.483
12.352
10.135
7.87
5.58
3.322
1.161
-0.837
-2.605
-4.116
-5.354
-6.27
-6.821
-7.041
-7.03
-6.969
-7.087
-7.516
-8.334
-9.662
-11.614
-14.329
-17.93
-22.459
-27.908
-34.378
-42.092
-51.099
-61.298
-72.303
-83.314
-93.539
-102.169
-108.037
-109.878
-107.191
-99.821
-87.928
-73.197
-57.53
-42.996
-33.605
-30.278
-28.506
-24.851
-16.184
-6.271
-9.771
-32.155
-65.561
-86.016
-55.503
48.02
225.3
456.474
706.84
950.582
1167.004
1338.319
1448.415
1473.965
1401.2
1233.696
990.222
710.376
434.844
190.643
-5.074
-156.581
-277.856
-375.388
-456.132
-517.242
-549.339
-552.486
-528.484
-483.557
-430.056
-375.793
-325.679
-283.618
-249.591
-222.363
-201.394
-185.345
-172.305
-160.983
-150.066
-137.81
-123.691
-108.328
-92.325
-76.489
-61.823
-48.66
-37.311
-28.92
-23.992
-22.284
-23.488
-26.863
-31.584
-37.382
-43.961
-50.488
-56.4
-61.359
-65.047
-67.502
-68.742
-68.525
-66.663
-63.142
-57.994
-51.38
-43.544
-34.677
-25.06
-14.992
-4.739
5.428
15.332
24.877
34.001
42.676
50.889
58.59
65.724
72.266
78.189
83.502
88.249
92.491
96.331
99.874
103.214
106.442
109.616
112.774
115.938
119.115
122.292
125.472
128.662
131.871
135.116
138.411
141.758
145.157
148.602
152.081
155.58
159.084
162.579
166.05
169.485
172.875
176.215
179.494
182.701
185.819
188.83
191.712
194.445
197.003
199.361
201.492
203.373
204.98
206.292
207.29
207.953
208.265
208.211
207.779
206.96
205.746
204.132
202.116
199.697
196.88
193.67
190.077
186.114
181.796
177.142
172.175
166.92
161.402
155.652
149.7
143.576
137.313
130.946
124.508
118.037
111.566
105.133
98.774
92.525
86.42
80.491
74.771
69.286
64.065
59.131
54.505
50.204
46.245
42.639
39.397
36.524
34.023
31.895
30.136
28.738
27.693
26.985
26.599
26.515
26.71
27.161
27.842
28.724
29.78
30.98
32.292
33.685
35.129
36.59
38.036
39.436
40.759
41.973
43.051
43.965
44.689
45.202
45.48
45.507
45.265
44.74
43.92
42.795
41.359
39.607
37.538
35.155
32.462
29.467
26.182
22.623
18.806
14.752
10.483
6.022
1.393
-3.377
-8.259
-13.224
-18.243
-23.286
-28.32
-33.313
-38.234
-43.049
-47.73
-52.247
-56.573
-60.679
-64.542
-68.136
-71.442
-74.44
-77.11
-79.436
-81.401
-82.995
-84.21
-85.04
-85.482
-85.536
-85.211
-84.519
-83.478
-82.105
-80.422
-78.452
-76.222
-73.761
-71.096
-68.254
-65.259
-62.142
-58.934
-55.675
-52.404
-49.157
-45.969
-42.875
-39.908
-37.105
-34.493
-32.084
-29.898
-27.955
-26.29
-24.957
-24.003
-23.452
-23.329
-23.645
-24.394
-25.565
-27.117
-28.971
-31.055
-33.3
-35.65
-38.083
-40.554
-42.997
-45.331
-47.449
-49.267
-50.748
-51.836
-52.501
-52.797
-52.802
-52.673
-52.652
-52.895
-53.561
-54.856
-56.933
-60.002
-64.296
-69.946
-77.158
-86.232
-97.209
-109.945
-124.031
-138.49
-152.321
-164.748
-174.741
-181.244
-183.83
-182.549
-178.29
-173.248
-169.533
-168.529
-171.607
-179.819
-192.975
-209.678
-226.893
-239.209
-240.759
-226.597
-192.105
-133.019
-46.513
68.02
208.588
367.253
531.615
690.124
833.016
957.606
1066.307
1157.414
1221.199
1234.912
1173.076
1020.936
782.759
490.668
189.536
-76.128
-274.32
-399.631
-464.004
-490.864
-501.958
-505.698
-502.467
-486.102
-454.166
-412.572
-369.727
-334.287
-310.306
-296.695
-290.775
-289.391
-289.568
-288.627
-284.01
-274.293
-259.612
-241.024
-220.017
-197.965
-176.02
-155.37
-137.175
-122.07
-110.103
-100.979
-94.159
-89.157
-85.648
-83.27
-81.628
-80.378
-79.151
-77.614
-75.593
-72.958
-69.613
-65.531
-60.676
-55.048
-48.742
-41.888
-34.606
-27.018
-19.213
-11.263
-3.279
4.612
12.269
19.545
26.348
32.625
38.339
43.474
48.03
52.019
55.495
58.528
61.176
63.486
65.495
67.232
68.742
70.075
71.276
72.389
73.452
74.495
75.55
76.644
77.798
79.026
80.336
81.731
83.217
84.8
86.486
88.281
90.185
92.195
94.311
96.526
98.832
101.215
103.659
106.146
108.656
111.17
113.664
116.115
118.499
120.792
122.97
125.008
126.88
128.563
130.033
131.266
132.241
132.939
133.339
133.424
133.178
132.589
131.645
130.336
128.656
126.6
124.167
121.357
118.174
114.626
110.721
106.471
101.89
96.996
91.809
86.351
80.644
74.713
68.583
62.284
55.841
49.283
42.638
35.936
29.203
22.47
15.763
9.11
2.537
-3.931
-10.27
-16.456
-22.468
-28.286
-33.89
-39.265
-44.395
-49.266
-53.869
-58.195
-62.238
-65.994
-69.462
-72.645
-75.544
-78.167
-80.521
-82.615
-84.461
-86.072
-87.461
-88.644
-89.637
-90.458
-91.124
-91.653
-92.064
-92.377
-92.609
-92.78
-92.908
-93.011
-93.107
-93.214
-93.349
-93.529
-93.769
-94.082
-94.484
-94.985
-95.595
-96.324
-97.177
-98.158
-99.271
-100.515
-101.892
-103.396
-105.022
-106.765
-108.615
-110.564
-112.598
-114.705
-116.868
-119.073
-121.302
-123.54
-125.769
-127.969
-130.121
-132.208
-134.211
-136.11
-137.887
-139.52
-140.991
-142.281
-143.372
-144.248
-144.893
-145.291
-145.43
-145.3
-144.893
-144.204
-143.227
-141.959
-140.399
-138.552
-136.423
-134.019
-131.351
-128.43
-125.274
-121.907
-118.352
-114.635
-110.782
-106.821
-102.783
-98.7
-94.601
-90.513
-86.461
-82.474
-78.583
-74.824
-71.23
-67.832
-64.666
-61.762
-59.156
-56.879
-54.95
-53.377
-52.174
-51.351
-50.932
-50.95
-51.424
-52.361
-53.769
-55.651
-57.993
-60.766
-63.909
-67.329
-70.944
-74.679
-78.478
-82.299
-86.077
-89.743
-93.224
-96.448
-99.373
-101.965
-104.164
-105.923
-107.276
-108.328
-109.255
-110.287
-111.573
-113.222
-115.392
-118.231
-121.884
-126.474
-132.042
-138.558
-146.138
-154.997
-165.147
-176.468
-188.516
-200.445
-211.496
-220.94
-227.695
-230.705
-229.617
-224.228
-214.973
-203.669
-192.019
-181.965
-176.661
-175.588
-173.785
-168.194
-154.757
-136.439
-127.097
-129.742
-140.847
-145.08
-107.124
-8.138
159.463
391.6
649.815
898.516
1098.895
1204.724
1206.537
1108.985
934.442
733.628
535.901
354.873
194.932
40.725
-111.786
-252.943
-373.277
-462.143
-516.149
-540.544
-541.747
-525.291
-496.67
-462.394
-428.89
-400.51
-379.27
-364.814
-355.617
-350.645
-348.661
-347.195
-343.464
-335.834
-323.995
-308.777
-291.571
-273.412
-255.045
-237.515
-222.043
-209.365
-199.712
-192.884
-188.309
-185.504
-184.145
-183.848
-184.184
-184.777
-185.224
-185.182
-184.488
-183.019
-180.681
-177.449
-173.276
-168.15
-162.153
-155.4
-148.014
-140.129
-131.851
-123.267
-114.499
-105.684
-96.968
-88.506
-80.4
-72.708
-65.479
-58.737
-52.504
-46.787
-41.557
-36.768
-32.383
-28.374
-24.723
-21.419
-18.436
-15.74
-13.302
-11.09
-9.082
-7.26
-5.601
-4.087
-2.704
-1.44
-0.289
0.749
1.684
2.527
3.287
3.977
4.606
5.184
5.721
6.225
6.705
7.162
7.6
8.018
8.417
8.796
9.156
9.492
9.804
10.088
10.341
10.561
10.742
10.879
10.966
10.998
10.967
10.867
10.691
10.432
10.082
9.635
9.086
8.43
7.66
6.772
5.763
4.627
3.363
1.969
0.442
-1.218
-3.01
-4.933
-6.983
-9.157
-11.45
-13.857
-16.371
-18.985
-21.693
-24.487
-27.359
-30.3
-33.301
-36.352
-39.442
-42.562
-45.698
-48.841
-51.977
-55.096
-58.185
-61.232
-64.228
-67.16
-70.018
-72.792
-75.471
-78.047
-80.511
-82.854
-85.069
-87.151
-89.092
-90.888
-92.535
-94.03
-95.37
-96.553
-97.58
-98.448
-99.16
-99.718
-100.123
-100.38
-100.495
-100.472
-100.318
-100.042
-99.651
-99.156
-98.566
-97.892
-97.146
-96.338
-95.482
-94.59
-93.673
-92.744
-91.814
-90.895
-89.998
-89.133
-88.31
-87.538
-86.824
-86.176
-85.602
-85.108
-84.697
-84.375
-84.143
-84.003
-83.956
-83.998
-84.127
-84.337
-84.621
-84.973
-85.384
-85.843
-86.337
-86.855
-87.382
-87.902
-88.4
-88.856
-89.254
-89.573
-89.794
-89.901
-89.873
-89.694
-89.345
-88.811
-88.077
-87.131
-85.959
-84.549
-82.891
-80.976
-78.8
-76.358
-73.649
-70.671
-67.43
-63.934
-60.197
-56.237
-52.07
-47.715
-43.197
-38.54
-33.772
-28.916
-23.993
-19.026
-14.04
-9.068
-4.145
0.696
5.423
10.007
14.415
18.614
22.576
26.283
29.727
32.899
35.779
38.334
40.517
42.291
43.637
44.541
44.998
45.012
44.6
43.807
42.716
41.403
39.931
38.349
36.677
34.965
33.281
31.711
30.358
29.303
28.612
28.337
28.486
29.025
29.881
30.925
32.007
32.976
33.639
33.834
33.449
32.371
30.521
27.714
23.565
17.873
10.747
2.517
-6.136
-14.513
-22.08
-27.947
-30.77
-29.735
-24.96
-17.308
-8.547
-0.721
4.338
4.418
-3.17
-17.505
-33.198
-44.905
-48.695
-48.373
-53.097
-63.353
-66.05
-33.759
61.041
227.51
450.402
693.046
918.324
1101.737
1233.022
1315.803
1355.538
1354.511
1312.234
1224.434
1084.435
888.298
643.881
373.796
115.706
-91.188
-225.253
-288.456
-305.518
-304.508
-301.458
-298.661
-286.608
-259.907
-222.352
-181.915
-148.093
-124.882
-110.856
-103.573
-100.138
-97.997
-95.034
-88.862
-78.211
-63.476
-45.682
-26.153
-6.064
13.731
32.218
48.271
61.307
71.326
78.634
83.811
87.333
89.489
90.696
91.403
92.018
92.986
94.57
96.87
99.981
103.95
108.793
114.546
121.165
128.516
136.482
144.938
153.764
162.881
172.169
181.479
190.66
199.539
207.997
215.971
223.412
230.295
236.611
242.356
247.557
252.281
256.573
260.474
264.017
267.222
270.121
272.76
275.184
277.431
279.536
281.524
283.42
285.251
287.033
288.782
290.503
292.197
293.872
295.535
297.197
298.865
300.546
302.242
303.956
305.689
307.438
309.196
310.953
312.696
314.412
316.086
317.703
319.245
320.694
322.033
323.244
324.307
325.206
325.922
326.435
326.731
326.792
326.605
326.156
325.432
324.425
323.124
321.524
319.62
317.407
314.884
312.051
308.911
305.467
301.725
297.695
293.388
288.815
283.994
278.942
273.679
268.226
262.607
256.845
250.966
244.995
238.958
232.883
226.796
220.723
214.691
208.726
202.851
197.091
191.467
185.999
180.706
175.605
170.71
166.034
161.59
157.386
153.431
149.73
146.286
143.103
140.178
137.511
135.095
132.924
130.989
129.279
127.782
126.482
125.365
124.413
123.608
122.929
122.356
121.867
121.441
121.053
120.683
120.306
119.902
119.45
118.929
118.321
117.61
116.779
115.816
114.706
113.44
112.008
110.401
108.613
106.64
104.48
102.131
99.596
96.879
93.985
90.924
87.707
84.346
80.855
77.248
73.543
69.76
65.918
62.037
58.14
54.251
50.393
46.591
42.87
39.252
35.761
32.417
29.241
26.251
23.464
20.892
18.548
16.442
14.584
12.982
11.64
10.56
9.741
9.182
8.879
8.821
8.994
9.376
9.942
10.669
11.529
12.491
13.522
14.589
15.663
16.721
17.738
18.683
19.524
20.224
20.748
21.066
21.146
20.954
20.465
19.655
18.514
17.045
15.242
13.093
10.577
7.646
4.267
0.416
-3.923
-8.754
-14.061
-19.818
-25.963
-32.398
-39.038
-45.8
-52.611
-59.423
-66.159
-72.736
-79.068
-85.034
-90.52
-95.428
-99.693
-103.315
-106.358
-108.911
-111.083
-113.027
-114.918
-116.96
-119.34
-122.202
-125.702
-129.96
-135.265
-142.066
-150.501
-160.572
-171.976
-183.849
-195.352
-205.711
-213.605
-217.72
-217.852
-213.975
-206.871
-199.344
-193.959
-193.225
-201.184
-217.038
-234.183
-248.854
-256.107
-259.075
-273.455
-300.012
-329.171
-337.91
-283.595
-147.016
70.735
354.227
657.594
941.981
1175.422
1323.159
1377.108
1339.937
1220.326
1042.647
824.611
580.044
329.971
96.458
-99.984
-244.722
-340.139
-404.97
-456.675
-504.476
-547.833
-575.415
-579.717
-562.644
-529.772
-490.556
-452.721
-418.518
-388.751
-363.716
-343.231
-327.979
-319.262
-316.35
-317.217
-320.148
-322.888
-324.176
-323.966
-321.354
-314.888
-304.308
-290.196
-273.866
-257.595
-242.615
-229.058
-217.292
-207.75
-200.682
-196.192
-193.732
-192.107
-190.534
-188.827
-187.045
-185.351
-183.736
-181.955
-179.818
-177.391
-174.804
-172.131
-169.383
-166.452
-163.239
-159.786
-156.216
-152.636
-149.118
-145.599
-141.894
-137.915
-133.667
-129.223
-124.74
-120.299
-115.895
-111.559
-107.339
-103.281
-99.431
-95.769
-92.205
-88.69
-85.206
-81.782
-78.501
-75.397
-72.453
-69.634
-66.87
-64.117
-61.359
-58.559
-55.671
-52.662
-49.512
-46.231
-42.862
-39.43
-35.941
-32.399
-28.799
-25.144
-21.457
-17.757
-14.068
-10.414
-6.82
-3.315
0.062
3.283
6.322
9.158
11.779
14.17
16.311
18.185
19.775
21.066
22.043
22.693
23
22.954
22.546
21.774
20.635
19.131
17.264
15.039
12.464
9.549
6.304
2.743
-1.119
-5.263
-9.67
-14.318
-19.184
-24.244
-29.472
-34.84
-40.32
-45.884
-51.502
-57.145
-62.783
-68.388
-73.931
-79.384
-84.72
-89.915
-94.944
-99.784
-104.414
-108.816
-112.973
-116.871
-120.497
-123.844
-126.904
-129.671
-132.144
-134.321
-136.205
-137.8
-139.11
-140.144
-140.91
-141.422
-141.692
-141.735
-141.569
-141.211
-140.68
-139.997
-139.182
-138.256
-137.243
-136.163
-135.038
-133.89
-132.74
-131.608
-130.514
-129.474
-128.505
-127.62
-126.832
-126.15
-125.581
-125.13
-124.799
-124.589
-124.499
-124.526
-124.667
-124.913
-125.256
-125.686
-126.191
-126.759
-127.373
-128.018
-128.675
-129.326
-129.953
-130.537
-131.057
-131.494
-131.826
-132.037
-132.106
-132.017
-131.752
-131.293
-130.627
-129.741
-128.628
-127.28
-125.692
-123.862
-121.795
-119.499
-116.986
-114.271
-111.37
-108.3
-105.082
-101.742
-98.3
-94.777
-91.193
-87.57
-83.935
-80.315
-76.742
-73.244
-69.853
-66.601
-63.523
-60.652
-58.011
-55.615
-53.483
-51.633
-50.099
-48.921
-48.129
-47.745
-47.786
-48.267
-49.186
-50.521
-52.22
-54.197
-56.368
-58.662
-61.022
-63.402
-65.744
-67.972
-70.003
-71.768
-73.225
-74.334
-75.054
-75.355
-75.271
-74.933
-74.533
-74.303
-74.444
-75.087
-76.366
-78.42
-81.361
-85.328
-90.481
-96.895
-104.67
-113.978
-124.883
-137.345
-151.046
-165.159
-178.614
-190.294
-199.082
-204.207
-205.12
-201.233
-193.098
-182.356
-171.145
-162.85
-157.831
-152.249
-143.724
-129.534
-113.818
-110.228
-122.64
-148.569
-171.992
-155.918
-76.826
78.89
307.685
567.887
815.481
1005.822
1102.958
1111.042
1052.014
956.301
853.786
752.221
646.398
528.26
393.646
247.18
98.614
-40.645
-162.359
-262.42
-339.019
-393.553
-428.704
-446.138
-447.695
-436.387
-416.095
-391.301
-366.414
-343.611
-323.113
-305.221
-290.117
-277.401
-266.333
-255.394
-242.612
-227.394
-210.31
-191.994
-173.257
-154.748
-136.862
-120.391
-106.34
-95.132
-86.749
-80.898
-77.014
-74.696
-73.695
-73.635
-74.084
-74.597
-74.74
-74.267
-73.091
-71.142
-68.387
-64.787
-60.307
-55.015
-49.035
-42.495
-35.53
-28.242
-20.713
-13.058
-5.41
2.091
9.297
16.121
22.519
28.458
33.929
38.929
43.462
47.567
51.303
54.717
57.848
60.728
63.375
65.824
68.116
70.284
72.363
74.379
76.351
78.299
80.241
82.187
84.147
86.125
88.119
90.132
92.172
94.241
96.346
98.488
100.667
102.883
105.133
107.412
109.71
112.015
114.314
116.592
118.834
121.023
123.142
125.174
127.099
128.902
130.563
132.066
133.393
134.527
135.452
136.155
136.62
136.835
136.787
136.466
135.862
134.967
133.774
132.277
130.472
128.356
125.929
123.192
120.148
116.803
113.163
109.239
105.041
100.584
95.884
90.958
85.825
80.504
75.019
69.39
63.641
57.794
51.873
45.901
39.902
33.898
27.911
21.965
16.079
10.274
4.569
-1.017
-6.468
-11.767
-16.9
-21.853
-26.613
-31.17
-35.514
-39.638
-43.536
-47.205
-50.641
-53.843
-56.814
-59.555
-62.072
-64.37
-66.458
-68.342
-70.035
-71.547
-72.89
-74.078
-75.123
-76.039
-76.84
-77.54
-78.153
-78.691
-79.168
-79.595
-79.983
-80.344
-80.687
-81.02
-81.35
-81.684
-82.028
-82.386
-82.761
-83.155
-83.567
-83.995
-84.437
-84.89
-85.347
-85.801
-86.243
-86.662
-87.048
-87.391
-87.675
-87.887
-88.011
-88.032
-87.936
-87.708
-87.333
-86.797
-86.087
-85.193
-84.105
-82.816
-81.321
-79.617
-77.704
-75.584
-73.259
-70.737
-68.026
-65.134
-62.073
-58.855
-55.493
-52.004
-48.405
-44.718
-40.965
-37.172
-33.366
-29.574
-25.827
-22.157
-18.598
-15.182
-11.932
-8.87
-6.025
-3.429
-1.124
0.855
2.496
3.79
4.729
5.314
5.546
5.449
5.085
4.509
3.764
2.882
1.859
0.701
-0.555
-1.861
-3.156
-4.392
-5.578
-6.736
-7.855
-8.933
-9.996
-11.148
-12.612
-14.588
-17.193
-20.466
-24.368
-28.91
-34.188
-40.263
-47.164
-54.915
-63.442
-72.785
-83.203
-94.628
-106.738
-119.009
-130.38
-139.823
-146.654
-149.814
-148.139
-141.577
-130.414
-115.342
-98.786
-83.242
-70.819
-64.842
-65.576
-68.298
-69.576
-67.885
-67.345
-77.902
-99.772
-117.658
-103.496
-28.889
113.967
306.03
513.115
704.293
865.509
1002.365
1117.596
1200.706
1235.065
1195.552
1077.619
903.935
699.054
492.799
302.807
126.364
-35.069
-177.194
-294.756
-378.623
-426.319
-442.365
-432.769
-404.291
-363.761
-318.402
-275.167
-238.75
-211.192
-192.106
-179.903
-173.184
-170.255
-168.374
-164.571
-157.168
-145.918
-131.589
-115.494
-98.64
-81.759
-65.924
-52.343
-41.657
-33.988
-29.032
-26.138
-24.798
-24.68
-25.346
-26.342
-27.259
-27.669
-27.327
-26.166
-24.114
-21.138
-17.232
-12.367
-6.595
-0.053
7.131
14.823
22.889
31.232
39.726
48.223
56.575
64.628
72.272
79.446
86.106
92.225
97.794
102.804
107.276
111.263
114.805
117.936
120.685
123.073
125.131
126.903
128.428
129.744
130.883
131.873
132.74
133.51
134.206
134.847
135.445
136.012
136.562
137.11
137.673
138.267
138.902
139.589
140.337
141.152
142.038
142.993
144.014
145.093
146.223
147.393
148.593
149.807
151.021
152.218
153.38
154.489
155.525
156.468
157.296
157.99
158.529
158.893
159.062
159.017
158.738
158.21
157.417
156.345
154.98
153.313
151.335
149.04
146.425
143.489
140.232
136.66
132.778
128.596
124.126
119.384
114.385
109.148
103.695
98.048
92.231
86.269
80.19
74.019
67.785
61.515
55.238
48.981
42.771
36.635
30.6
24.689
18.928
13.338
7.94
2.753
-2.207
-6.923
-11.384
-15.579
-19.501
-23.144
-26.504
-29.58
-32.375
-34.89
-37.133
-39.111
-40.833
-42.312
-43.561
-44.595
-45.428
-46.08
-46.566
-46.905
-47.117
-47.22
-47.232
-47.171
-47.057
-46.906
-46.736
-46.562
-46.398
-46.257
-46.152
-46.091
-46.084
-46.135
-46.247
-46.422
-46.66
-46.958
-47.312
-47.715
-48.16
-48.636
-49.134
-49.639
-50.138
-50.617
-51.058
-51.446
-51.764
-51.996
-52.125
-52.136
-52.013
-51.743
-51.313
-50.713
-49.931
-48.96
-47.793
-46.424
-44.854
-43.082
-41.108
-38.938
-36.58
-34.048
-31.362
-28.544
-25.616
-22.605
-19.541
-16.454
-13.375
-10.332
-7.345
-4.442
-1.65
1.002
3.478
5.747
7.779
9.545
11.015
12.167
12.981
13.447
13.572
13.353
12.782
11.843
10.493
8.702
6.457
3.748
0.579
-3.023
-7.03
-11.381
-15.979
-20.741
-25.586
-30.449
-35.304
-40.096
-44.754
-49.194
-53.289
-56.921
-60.015
-62.525
-64.452
-65.843
-66.76
-67.311
-67.666
-67.99
-68.442
-69.133
-70.107
-71.502
-73.474
-76.28
-80.334
-85.845
-92.815
-100.985
-109.607
-117.739
-124.454
-128.527
-128.738
-124.52
-115.585
-103.105
-90.056
-79.493
-75.07
-77.712
-83.912
-90.716
-95.488
-102.866
-125.88
-167.588
-219.325
-253.177
-224.872
-111.347
84.132
330.112
575.479
787.552
955.804
1088.675
1195.448
1269.931
1297.401
1252.775
1130.932
947.716
721.337
487.333
267.144
66.329
-103.538
-247.547
-368.114
-460.562
-530.12
-574.167
-590.566
-582.545
-551.144
-502.878
-445.895
-386.346
-328.877
-275.091
-226.416
-184.519
-150.57
-126.019
-110.526
-101.606
-97.634
-97.023
-97.433
-97.83
-97.166
-93.535
-86.54
-76.968
-65.439
-53.48
-42.957
-34.453
-28.355
-25.203
-24.791
-26.69
-30.462
-35.141
-39.664
-43.509
-46.375
-48.089
-48.711
-48.229
-46.562
-43.721
-39.835
-35.045
-29.522
-23.496
-17.112
-10.528
-3.959
2.419
8.474
14.111
19.319
24.154
28.626
32.739
36.487
39.801
42.659
45.083
47.106
48.802
50.242
51.476
52.572
53.607
54.635
55.694
56.789
57.888
58.971
60.034
61.074
62.106
63.135
64.157
65.168
66.163
67.132
68.068
68.958
69.777
70.507
71.132
71.643
72.038
72.314
72.46
72.469
72.333
72.044
71.592
70.968
70.159
69.151
67.938
66.511
64.866
62.998
60.906
58.586
56.041
53.272
50.283
47.077
43.661
40.039
36.22
32.212
28.027
23.673
19.165
14.515
9.737
4.847
-0.138
-5.202
-10.33
-15.504
-20.707
-25.923
-31.136
-36.33
-41.486
-46.59
-51.624
-56.572
-61.418
-66.149
-70.75
-75.212
-79.523
-83.674
-87.659
-91.471
-95.106
-98.561
-101.832
-104.919
-107.821
-110.539
-113.076
-115.436
-117.623
-119.643
-121.502
-123.208
-124.77
-126.195
-127.493
-128.672
-129.741
-130.711
-131.592
-132.392
-133.123
-133.794
-134.416
-134.998
-135.553
-136.087
-136.61
-137.127
-137.646
-138.17
-138.704
-139.248
-139.802
-140.365
-140.934
-141.507
-142.079
-142.644
-143.195
-143.721
-144.215
-144.666
-145.061
-145.389
-145.635
-145.787
-145.831
-145.755
-145.547
-145.194
-144.683
-144.003
-143.143
-142.094
-140.845
-139.387
-137.71
-135.808
-133.677
-131.316
-128.723
-125.9
-122.852
-119.588
-116.125
-112.479
-108.67
-104.717
-100.643
-96.477
-92.245
-87.974
-83.684
-79.399
-75.144
-70.947
-66.842
-62.861
-59.036
-55.394
-51.967
-48.786
-45.875
-43.253
-40.926
-38.902
-37.196
-35.834
-34.861
-34.314
-34.216
-34.585
-35.429
-36.733
-38.47
-40.583
-42.977
-45.564
-48.267
-51.02
-53.782
-56.501
-59.111
-61.534
-63.677
-65.451
-66.784
-67.612
-67.916
-67.771
-67.288
-66.648
-66.081
-65.76
-65.891
-66.686
-68.281
-70.81
-74.424
-79.204
-85.376
-93.303
-103.012
-114.373
-127.029
-140.053
-152.462
-163.35
-171.341
-175.132
-174.452
-169.31
-160.344
-149.884
-140.48
-134.64
-135.451
-142.553
-151.215
-157.622
-159.401
-159.507
-165.074
-175.553
-179.828
-155.362
-78.008
64.339
269.734
517.597
777.224
1016.101
1199.096
1302.408
1319.735
1261.392
1150.646
1008.02
842.474
648.948
426.268
189.617
-38.157
-224.688
-352.657
-431.218
-473.348
-496.412
-509.486
-506.844
-487.428
-454.732
-415.757
-380.919
-355.154
-338.699
-330.107
-326.372
-324.929
-322.828
-316.522
-304.127
-285.328
-261.087
-233.323
-203.655
-173.36
-143.947
-116.93
-93.294
-73.491
-57.413
-44.623
-34.785
-27.679
-23.147
-20.949
-20.723
-22.054
-24.386
-27.132
-29.872
-32.284
-34.114
-35.225
-35.477
-34.779
-33.19
-30.782
-27.59
-23.613
-18.733
-12.859
-6.063
1.508
9.597
17.871
26.116
34.179
41.903
49.204
56.023
62.323
68.168
73.643
78.776
83.56
87.937
91.842
95.285
98.307
100.977
103.398
105.642
107.771
109.862
111.969
114.122
116.338
118.598
120.867
123.133
125.398
127.672
129.973
132.306
134.663
137.04
139.427
141.808
144.166
146.474
148.707
150.847
152.878
154.79
156.578
158.231
159.739
161.09
162.272
163.27
164.071
164.658
165.014
165.126
164.981
164.568
163.876
162.899
161.628
160.058
158.187
156.011
153.529
150.743
147.654
144.267
140.587
136.62
132.375
127.863
123.096
118.087
112.855
107.414
101.783
95.981
90.027
83.941
77.744
71.455
65.093
58.681
52.239
45.788
39.35
32.946
26.596
20.319
14.134
8.058
2.108
-3.701
-9.356
-14.844
-20.155
-25.28
-30.209
-34.937
-39.457
-43.767
-47.863
-51.745
-55.413
-58.867
-62.11
-65.147
-67.982
-70.618
-73.063
-75.323
-77.404
-79.315
-81.063
-82.657
-84.105
-85.414
-86.595
-87.654
-88.601
-89.441
-90.181
-90.826
-91.381
-91.851
-92.238
-92.545
-92.771
-92.918
-92.984
-92.967
-92.865
-92.673
-92.385
-91.997
-91.505
-90.901
-90.181
-89.34
-88.372
-87.274
-86.044
-84.68
-83.179
-81.54
-79.761
-77.844
-75.79
-73.603
-71.283
-68.838
-66.277
-63.61
-60.858
-58.037
-55.165
-52.263
-49.355
-46.465
-43.617
-40.829
-38.117
-35.502
-33.008
-30.662
-28.492
-26.52
-24.766
-23.253
-22.003
-21.034
-20.357
-19.972
-19.873
-20.063
-20.554
-21.368
-22.541
-24.096
-26.045
-28.39
-31.135
-34.27
-37.776
-41.606
-45.681
-49.928
-54.286
-58.701
-63.127
-67.493
-71.709
-75.674
-79.277
-82.411
-84.996
-86.991
-88.359
-89.109
-89.261
-88.842
-87.98
-86.853
-85.671
-84.662
-84.032
-83.942
-84.644
-86.573
-89.945
-94.696
-100.44
-106.273
-111.336
-115.119
-116.935
-115.793
-111.234
-103.54
-93.989
-85.395
-80.442
-80.691
-87.626
-102.65
-125.877
-155.725
-188.181
-216.361
-233.253
-232.812
-208.979
-156.078
-69.477
49.928
194.532
355.027
520.939
689.509
865.774
1043.51
1208.88
1337.177
1391.946
1356.396
1230.466
1026.177
774.471
501.468
230.74
-8.792
-198.743
-328.152
-398.068
-429.212
-441.588
-447.223
-449.493
-439.527
-412.333
-371.267
-322.579
-275.366
-234.654
-200.488
-172.415
-149.338
-130.021
-114.088
-101.389
-91.586
-84.707
-80.414
-77.466
-75.056
-72.959
-70.646
-67.368
-62.688
-56.273
-48.51
-40.754
-33.825
-27.93
-23.314
-20.121
-18.3
-17.758
-18.012
-18.109
-17.46
-15.863
-13.197
-9.536
-4.965
0.49
6.683
13.342
20.283
27.395
34.584
41.829
49.052
56.109
62.904
69.364
75.439
81.125
86.423
91.337
95.9
100.164
104.166
107.941
111.512
114.891
118.099
121.156
124.086
126.92
129.683
132.403
135.103
137.798
140.498
143.207
145.922
148.638
151.352
154.064
156.772
159.475
162.171
164.856
167.525
170.175
172.794
175.371
177.89
180.336
182.693
184.947
187.08
189.077
190.921
192.595
194.085
195.374
196.449
197.293
197.892
198.232
198.302
198.088
197.582
196.775
195.659
194.23
192.486
190.427
188.055
185.375
182.393
179.117
175.557
171.726
167.637
163.305
158.745
153.976
149.019
143.894
138.622
133.226
127.729
122.152
116.52
110.855
105.18
99.515
93.884
88.307
82.804
77.397
72.105
66.945
61.933
57.085
52.413
47.929
43.64
39.554
35.674
32.002
28.537
25.279
22.223
19.364
16.694
14.206
11.889
9.733
7.726
5.855
4.106
2.465
0.919
-0.546
-1.944
-3.29
-4.596
-5.876
-7.143
-8.408
-9.685
-10.985
-12.32
-13.699
-15.131
-16.624
-18.182
-19.811
-21.511
-23.281
-25.117
-27.016
-28.971
-30.975
-33.017
-35.086
-37.169
-39.252
-41.319
-43.356
-45.343
-47.262
-49.096
-50.827
-52.436
-53.908
-55.225
-56.371
-57.332
-58.093
-58.644
-58.972
-59.068
-58.92
-58.52
-57.864
-56.948
-55.772
-54.334
-52.639
-50.695
-48.519
-46.127
-43.538
-40.772
-37.852
-34.807
-31.664
-28.45
-25.189
-21.904
-18.623
-15.38
-12.209
-9.146
-6.225
-3.477
-0.935
1.368
3.399
5.142
6.586
7.723
8.533
8.987
9.041
8.663
7.838
6.549
4.789
2.568
-0.093
-3.144
-6.5
-10.086
-13.842
-17.718
-21.69
-25.707
-29.692
-33.562
-37.232
-40.633
-43.725
-46.439
-48.73
-50.644
-52.274
-53.782
-55.374
-57.16
-59.243
-61.79
-64.956
-68.914
-73.859
-79.833
-86.943
-95.482
-105.494
-116.835
-129.076
-141.218
-152.368
-161.98
-169.101
-172.632
-172.353
-168.452
-162.109
-155.806
-150.958
-148.535
-150.775
-159.395
-174.23
-191.698
-203.889
-202.913
-185.41
-156.479
-124.613
-92.352
-54.833
7.282
118.048
289.793
518.743
774.576
1010.626
1180.283
1252.754
1226.87
1121.695
970.279
802.512
631.514
461.51
289.207
113.049
-59.152
-214.953
-341.735
-432.774
-488.173
-512.342
-511.802
-492.116
-458.883
-419.603
-381.392
-348.844
-324.237
-307.434
-296.908
-291.365
-289.204
-287.601
-283.548
-275.393
-262.827
-246.672
-228.373
-209.053
-189.592
-171.17
-155.075
-142.057
-132.337
-125.694
-121.537
-119.365
-118.825
-119.497
-120.931
-122.725
-124.456
-125.766
-126.474
-126.438
-125.551
-123.773
-121.047
-117.355
-112.776
-107.421
-101.413
-94.881
-87.929
-80.642
-73.142
-65.566
-58.059
-50.776
-43.812
-37.224
-31.055
-25.326
-20.05
-15.228
-10.824
-6.782
-3.059
0.377
3.552
6.481
9.197
11.737
14.133
16.419
18.619
20.75
22.834
24.889
26.926
28.952
30.969
32.976
34.974
36.969
38.965
40.967
42.976
44.993
47.018
49.053
51.093
53.131
55.159
57.167
59.144
61.079
62.96
64.771
66.5
68.132
69.653
71.049
72.305
73.405
74.335
75.081
75.629
75.964
76.075
75.949
75.574
74.942
74.045
72.877
71.432
69.709
67.706
65.424
62.867
60.039
56.947
53.598
50.004
46.176
42.131
37.883
33.451
28.852
24.109
19.241
14.271
9.221
4.113
-1.029
-6.184
-11.326
-16.434
-21.483
-26.453
-31.32
-36.063
-40.662
-45.099
-49.354
-53.414
-57.264
-60.892
-64.288
-67.445
-70.356
-73.02
-75.434
-77.599
-79.518
-81.198
-82.643
-83.865
-84.873
-85.68
-86.3
-86.747
-87.038
-87.189
-87.217
-87.142
-86.98
-86.751
-86.474
-86.166
-85.848
-85.538
-85.253
-85.01
-84.826
-84.713
-84.685
-84.753
-84.926
-85.208
-85.605
-86.119
-86.75
-87.496
-88.352
-89.311
-90.363
-91.497
-92.699
-93.955
-95.246
-96.555
-97.86
-99.143
-100.383
-101.56
-102.65
-103.632
-104.484
-105.185
-105.714
-106.051
-106.177
-106.072
-105.722
-105.112
-104.233
-103.075
-101.634
-99.906
-97.896
-95.609
-93.053
-90.24
-87.185
-83.906
-80.425
-76.765
-72.95
-69.008
-64.968
-60.864
-56.729
-52.602
-48.517
-44.512
-40.63
-36.91
-33.396
-30.124
-27.119
-24.41
-22.028
-20.011
-18.402
-17.238
-16.532
-16.297
-16.55
-17.295
-18.529
-20.222
-22.3
-24.692
-27.345
-30.213
-33.279
-36.508
-39.836
-43.191
-46.498
-49.696
-52.782
-55.744
-58.531
-61.13
-63.569
-65.972
-68.584
-71.621
-75.226
-79.484
-84.421
-90.124
-96.732
-104.328
-113.001
-122.81
-133.672
-145.7
-159.131
-173.802
-189.411
-205.314
-220.15
-232.691
-242.043
-246.951
-246.427
-240.559
-229.364
-213.612
-196.322
-180.57
-168.754
-163.961
-165.329
-167.076
-168.572
-169.772
-170.439
-177.142
-181.132
-163.227
-111.328
-8.788
143.063
325.102
528.338
736.803
934.425
1109.165
1232.185
1280.038
1243.708
1123.316
937.692
709.596
457.013
202.807
-28.068
-214.155
-339.661
-406.978
-438.885
-457.811
-477.694
-500.01
-511.243
-502.616
-476.349
-439.569
-403.48
-374.339
-351.334
-332.631
-316.801
-302.793
-289.886
-276.651
-260.902
-241.869
-220.318
-197.245
-173.728
-150.656
-128.633
-108.528
-91.469
-77.985
-68.131
-61.731
-58.229
-57.078
-57.781
-59.738
-62.373
-65.17
-67.668
-69.558
-70.665
-70.857
-70.081
-68.315
-65.507
-61.654
-56.734
-50.71
-43.655
-35.73
-27.161
-18.194
-9.036
0.121
9.084
17.687
25.814
33.406
40.473
47.046
53.127
58.718
63.801
68.344
72.359
75.893
79.018
81.809
84.329
86.63
88.774
90.829
92.845
94.841
96.811
98.74
100.629
102.488
104.334
106.181
108.035
109.899
111.771
113.652
115.541
117.432
119.315
121.174
122.995
124.772
126.5
128.175
129.788
131.326
132.774
134.12
135.352
136.452
137.401
138.18
138.77
139.155
139.322
139.255
138.94
138.363
137.513
136.379
134.951
133.224
131.189
128.845
126.188
123.221
119.946
116.369
112.498
108.343
103.916
99.231
94.303
89.151
83.793
78.25
72.543
66.696
60.732
54.675
48.551
42.384
36.203
30.032
23.899
17.828
11.844
5.973
0.237
-5.34
-10.736
-15.933
-20.911
-25.653
-30.145
-34.374
-38.331
-42.008
-45.4
-48.507
-51.327
-53.864
-56.123
-58.111
-59.836
-61.31
-62.545
-63.554
-64.354
-64.961
-65.393
-65.667
-65.803
-65.819
-65.736
-65.572
-65.348
-65.083
-64.795
-64.504
-64.229
-63.989
-63.801
-63.68
-63.642
-63.701
-63.867
-64.151
-64.558
-65.092
-65.753
-66.543
-67.458
-68.492
-69.637
-70.883
-72.217
-73.626
-75.095
-76.605
-78.137
-79.67
-81.186
-82.663
-84.082
-85.421
-86.66
-87.778
-88.757
-89.579
-90.227
-90.685
-90.932
-90.957
-90.745
-90.287
-89.573
-88.595
-87.346
-85.83
-84.052
-82.023
-79.755
-77.26
-74.556
-71.666
-68.612
-65.418
-62.103
-58.686
-55.192
-51.653
-48.103
-44.577
-41.107
-37.724
-34.463
-31.36
-28.447
-25.744
-23.26
-21.008
-19.01
-17.301
-15.93
-14.936
-14.339
-14.159
-14.409
-15.084
-16.167
-17.61
-19.328
-21.245
-23.305
-25.462
-27.693
-29.952
-32.155
-34.216
-36.048
-37.582
-38.777
-39.569
-39.915
-39.874
-39.559
-39.151
-38.877
-38.863
-39.216
-40.129
-41.794
-44.399
-48.159
-53.151
-59.509
-67.579
-77.446
-88.911
-101.434
-113.932
-125.465
-135.451
-142.899
-146.57
-146.11
-141.778
-135.015
-128.498
-123.522
-121.017
-123.216
-131.528
-146.024
-163.137
-173.693
-171.845
-156.633
-130.801
-102.556
-65.573
-5.038
88.647
229.87
410.506
609.489
818.919
1017.164
1188.388
1320.785
1380.841
1352.701
1237.125
1046.714
821.634
593.518
378.578
184.335
3.865
-162.82
-307.406
-421.775
-497.874
-535.421
-540.439
-519.654
-480.788
-431.795
-379.979
-332.164
-292.572
-262.26
-240.703
-226.455
-217.627
-211.927
-206.489
-198.463
-186.564
-171.062
-152.872
-133.287
-113.415
-94.133
-76.593
-61.988
-50.839
-43.1
-38.365
-35.947
-35.315
-36.093
-37.815
-39.98
-42.1
-43.73
-44.619
-44.675
-43.832
-42.053
-39.298
-35.534
-30.831
-25.319
-19.133
-12.407
-5.25
2.251
9.973
17.774
25.502
32.998
40.166
46.952
53.32
59.254
64.744
69.787
74.419
78.699
82.67
86.366
89.815
93.029
96.039
98.884
101.594
104.201
106.725
109.18
111.58
113.937
116.255
118.535
120.771
122.952
125.073
127.134
129.131
131.063
132.926
134.716
136.429
138.061
139.606
141.053
142.393
143.614
144.707
145.661
146.467
147.115
147.595
147.898
148.015
147.938
147.659
147.168
146.459
145.526
144.363
142.967
141.336
139.468
137.366
135.031
132.469
129.686
126.689
123.486
120.088
116.505
112.751
108.839
104.783
100.599
96.304
91.913
87.446
82.921
78.356
73.768
69.176
64.597
60.047
55.545
51.104
46.741
42.469
38.303
34.256
30.338
26.56
22.93
19.455
16.139
12.986
9.996
7.169
4.502
1.992
-0.367
-2.583
-4.663
-6.617
-8.456
-10.19
-11.833
-13.398
-14.898
-16.347
-17.759
-19.147
-20.524
-21.903
-23.297
-24.716
-26.171
-27.671
-29.226
-30.843
-32.532
-34.295
-36.139
-38.066
-40.077
-42.171
-44.346
-46.597
-48.915
-51.293
-53.72
-56.186
-58.676
-61.176
-63.669
-66.14
-68.57
-70.941
-73.233
-75.426
-77.498
-79.429
-81.2
-82.793
-84.187
-85.364
-86.309
-87.008
-87.447
-87.617
-87.506
-87.105
-86.408
-85.41
-84.111
-82.51
-80.609
-78.413
-75.935
-73.192
-70.205
-66.995
-63.586
-60.004
-56.278
-52.44
-48.516
-44.529
-40.503
-36.463
-32.442
-28.476
-24.599
-20.838
-17.222
-13.78
-10.543
-7.538
-4.778
-2.266
-0.008
1.981
3.671
5.017
5.984
6.555
6.711
6.448
5.77
4.682
3.227
1.478
-0.499
-2.639
-4.898
-7.249
-9.635
-11.971
-14.167
-16.109
-17.717
-18.929
-19.673
-19.93
-19.73
-19.129
-18.236
-17.17
-16.038
-15.003
-14.273
-14.026
-14.492
-15.861
-18.359
-22.436
-28.323
-35.88
-44.682
-53.815
-62.259
-69.335
-74.216
-75.712
-73.358
-67.606
-59.906
-53.027
-49.603
-51.78
-61.401
-79.797
-107.458
-140.068
-171.096
-196.022
-207.855
-206.092
-191.155
-149.394
-72.529
47.452
215.5
409.536
608.664
797.014
960.97
1105.746
1232.959
1333.821
1389.224
1373.733
1270.213
1074.625
810.818
516.057
231.53
0.44
-161.826
-258.69
-307.076
-339.225
-371.135
-405.561
-438.062
-453.049
-445.191
-418.478
-378.591
-335.781
-296.054
-260.128
-228.247
-200.08
-175.43
-155.477
-141.025
-130.853
-123.293
-116.606
-109.699
-102.498
-94.951
-86.331
-75.656
-62.94
-49.135
-35.89
-24.352
-14.655
-6.681
-0.4
3.897
6.095
6.778
7.056
7.828
9.493
12.118
15.565
19.876
25.188
31.431
38.379
45.771
53.389
61.144
69.036
77.006
84.933
92.66
100.009
106.877
113.223
119.023
124.275
128.98
133.138
136.79
139.995
142.8
145.248
147.364
149.164
150.675
151.935
152.987
153.878
154.646
155.317
155.914
156.458
156.965
157.446
157.911
158.361
158.802
159.245
159.697
160.171
160.672
161.207
161.778
162.386
163.028
163.699
164.39
165.093
165.795
166.486
167.151
167.777
168.348
168.85
169.267
169.585
169.787
169.858
169.784
169.551
169.145
168.555
167.768
166.775
165.566
164.134
162.474
160.581
158.452
156.085
153.481
150.642
147.571
144.272
140.754
137.023
133.09
128.968
124.67
120.213
115.614
110.89
106.061
101.147
96.169
91.146
86.099
81.048
76.015
71.017
66.074
61.205
56.427
51.755
47.205
42.789
38.519
34.407
30.46
26.686
23.089
19.675
16.446
13.403
10.545
7.869
5.373
3.05
0.894
-1.103
-2.952
-4.663
-6.249
-7.722
-9.097
-10.387
-11.608
-12.776
-13.904
-15.01
-16.108
-17.212
-18.337
-19.497
-20.705
-21.973
-23.309
-24.724
-26.224
-27.816
-29.504
-31.289
-33.174
-35.157
-37.236
-39.409
-41.67
-44.013
-46.428
-48.905
-51.433
-53.999
-56.589
-59.186
-61.773
-64.333
-66.848
-69.299
-71.668
-73.935
-76.08
-78.084
-79.929
-81.596
-83.068
-84.33
-85.365
-86.163
-86.712
-87.005
-87.038
-86.81
-86.321
-85.576
-84.581
-83.343
-81.875
-80.188
-78.299
-76.222
-73.974
-71.577
-69.052
-66.424
-63.723
-60.978
-58.217
-55.471
-52.771
-50.154
-47.659
-45.322
-43.166
-41.216
-39.502
-38.058
-36.931
-36.152
-35.733
-35.68
-35.997
-36.687
-37.751
-39.164
-40.861
-42.771
-44.832
-46.995
-49.247
-51.563
-53.892
-56.168
-58.311
-60.277
-62.08
-63.749
-65.279
-66.662
-67.925
-69.173
-70.639
-72.576
-75.157
-78.498
-82.648
-87.653
-93.619
-100.64
-108.759
-118.011
-128.367
-139.778
-152.353
-166.209
-181.215
-197.022
-212.79
-227.158
-238.889
-246.865
-249.964
-247.553
-239.35
-225.279
-206.967
-187.778
-171.095
-160.509
-155.954
-152.552
-147.224
-139.684
-136.375
-147.68
-172.919
-195.72
-184.252
-107.037
46.856
260.817
492.094
700.671
865.384
983.491
1074.305
1146.859
1188.914
1181.68
1094.034
913.413
661.255
373.005
100.681
-114.945
-265
-358.3
-420.911
-476.046
-528.821
-575.222
-603.598
-605.833
-584.232
-545.198
-498.407
-452.054
-409.379
-371.708
-339.364
-312.276
-291.145
-277.188
-269.729
-266.637
-266.093
-265.962
-264.979
-263.115
-259.626
-253.126
-243.441
-231.189
-217.463
-204.25
-192.581
-182.426
-174.095
-167.953
-164.029
-162.22
-161.821
-161.532
-160.615
-158.834
-156.043
-152.32
-147.652
-141.921
-135.258
-127.953
-120.215
-112.207
-103.999
-95.564
-86.971
-78.354
-69.865
-61.677
-53.892
-46.553
-39.693
-33.324
-27.451
-22.08
-17.177
-12.688
-8.577
-4.814
-1.382
1.72
4.518
7.048
9.348
11.464
13.433
15.275
17.018
18.679
20.275
21.819
23.318
24.776
26.2
27.601
28.992
30.385
31.792
33.219
34.672
36.156
37.668
39.207
40.768
42.341
43.917
45.488
47.04
48.562
50.04
51.461
52.809
54.068
55.22
56.248
57.133
57.858
58.405
58.754
58.891
58.798
58.462
57.87
57.01
55.871
54.444
52.722
50.697
48.366
45.724
42.77
39.505
35.933
32.059
27.893
23.444
18.726
13.755
8.546
3.117
-2.511
-8.318
-14.283
-20.382
-26.592
-32.887
-39.241
-45.627
-52.018
-58.389
-64.713
-70.965
-77.12
-83.156
-89.051
-94.784
-100.337
-105.691
-110.83
-115.739
-120.403
-124.812
-128.954
-132.823
-136.413
-139.719
-142.742
-145.481
-147.939
-150.12
-152.029
-153.674
-155.063
-156.205
-157.113
-157.797
-158.271
-158.552
-158.654
-158.595
-158.391
-158.059
-157.616
-157.077
-156.458
-155.775
-155.038
-154.262
-153.456
-152.632
-151.798
-150.961
-150.127
-149.299
-148.481
-147.673
-146.876
-146.085
-145.296
-144.504
-143.7
-142.879
-142.03
-141.143
-140.206
-139.209
-138.139
-136.984
-135.731
-134.365
-132.869
-131.232
-129.439
-127.479
-125.34
-123.011
-120.483
-117.751
-114.811
-111.662
-108.304
-104.74
-100.974
-97.018
-92.885
-88.591
-84.154
-79.594
-74.933
-70.198
-65.416
-60.61
-55.806
-51.03
-46.309
-41.678
-37.168
-32.813
-28.645
-24.697
-20.999
-17.587
-14.488
-11.713
-9.281
-7.205
-5.51
-4.235
-3.405
-3.03
-3.119
-3.678
-4.697
-6.161
-8.024
-10.211
-12.657
-15.304
-18.114
-21.075
-24.148
-27.278
-30.396
-33.409
-36.261
-38.925
-41.353
-43.482
-45.302
-46.865
-48.3
-49.809
-51.517
-53.458
-55.659
-58.167
-61.094
-64.592
-68.815
-73.846
-79.777
-86.829
-95.104
-104.506
-114.581
-124.29
-132.407
-137.925
-139.889
-137.337
-129.983
-118.167
-103.054
-87.403
-74.171
-65.665
-64.153
-71.167
-86.44
-108.134
-132.504
-153.082
-162.869
-155.297
-123.652
-62.923
29.048
151.336
299.542
465.781
640.095
810.921
965.258
1090.928
1177.836
1219.462
1212.772
1157.323
1055.89
914.854
743.927
554.739
359.292
167.524
-11.994
-170.567
-301.104
-399.227
-463.979
-497.509
-503.809
-486.439
-448.977
-397.024
-337.299
-276.197
-218.558
-167.531
-124.558
-90.953
-68.505
-57.187
-54.961
-59.068
-66.542
-74.515
-81.548
-86.569
-87.695
-84.07
-76.071
-64.576
-51.356
-38.519
-26.987
-17.193
-9.848
-5.094
-2.774
-2.586
-3.518
-4.393
-4.637
-3.976
-2.275
0.359
3.924
8.444
13.708
19.467
25.552
31.839
38.304
44.957
51.721
58.463
65.029
71.298
77.21
82.742
87.887
92.644
97.008
101.002
104.677
108.069
111.204
114.099
116.752
119.178
121.407
123.472
125.413
127.267
129.057
130.803
132.522
134.222
135.907
137.579
139.228
140.852
142.453
144.031
145.587
147.123
148.634
150.119
151.572
152.985
154.346
155.644
156.863
157.992
159.016
159.922
160.694
161.32
161.785
162.077
162.182
162.086
161.776
161.238
160.46
159.432
158.144
156.585
154.75
152.632
150.229
147.538
144.559
141.296
137.75
133.927
129.835
125.481
120.877
116.034
110.966
105.689
100.219
94.574
88.775
82.842
76.794
70.653
64.44
58.177
51.885
45.586
39.3
33.05
26.856
20.739
14.719
8.814
3.043
-2.578
-8.034
-13.31
-18.394
-23.275
-27.943
-32.39
-36.611
-40.6
-44.356
-47.878
-51.166
-54.225
-57.059
-59.674
-62.08
-64.284
-66.298
-68.131
-69.796
-71.306
-72.674
-73.914
-75.039
-76.066
-77.008
-77.882
-78.703
-79.485
-80.243
-80.991
-81.741
-82.507
-83.3
-84.131
-85.008
-85.94
-86.935
-87.998
-89.132
-90.337
-91.613
-92.957
-94.365
-95.83
-97.345
-98.898
-100.478
-102.071
-103.665
-105.244
-106.792
-108.29
-109.721
-111.065
-112.305
-113.422
-114.393
-115.2
-115.823
-116.246
-116.452
-116.426
-116.152
-115.616
-114.808
-113.719
-112.343
-110.673
-108.709
-106.451
-103.907
-101.089
-98.011
-94.689
-91.142
-87.389
-83.456
-79.369
-75.151
-70.826
-66.42
-61.964
-57.494
-53.048
-48.663
-44.377
-40.225
-36.246
-32.483
-28.969
-25.722
-22.767
-20.128
-17.84
-15.956
-14.515
-13.533
-13.025
-12.999
-13.448
-14.358
-15.683
-17.338
-19.248
-21.346
-23.583
-25.942
-28.377
-30.817
-33.18
-35.36
-37.301
-38.987
-40.392
-41.468
-42.232
-42.766
-43.234
-43.907
-44.973
-46.522
-48.654
-51.471
-55.143
-59.898
-65.893
-73.145
-81.685
-91.64
-103.021
-115.729
-129.291
-142.636
-154.763
-165.007
-172.607
-176.638
-176.576
-172.202
-164.065
-154.304
-144.594
-135.255
-127.601
-123.563
-123.442
-127.15
-130.714
-124.282
-103.852
-70.047
-26.081
18.491
66.411
129.463
219.064
351.014
524.596
727.174
944.067
1146.602
1310.882
1415.694
1435.512
1365.124
1207.572
973.624
696.862
406.705
134.645
-82.642
-234.626
-322.057
-358.668
-377.532
-395.6
-416.9
-438.016
-443.933
-430.675
-404.621
-373.392
-345.135
-321.189
-298.928
-276.944
-254.532
-232.078
-209.575
-185.743
-161.338
-139.481
-122.457
-111.615
-106.719
-105.632
-107.245
-111.632
-117.676
-123.297
-126.962
-127.521
-125.165
-121.676
-118.029
-114.335
-110.88
-107.889
-105.547
-104.134
-103.33
-102.178
-100.096
-96.87
-92.452
-87.078
-80.903
-73.966
-66.429
-58.551
-50.548
-42.602
-34.845
-27.32
-20.071
-13.15
-6.601
-0.469
5.222
10.473
15.318
19.811
23.993
27.888
31.517
34.887
38.023
40.955
43.703
46.281
48.7
50.972
53.116
55.158
57.114
58.989
60.785
62.496
64.126
65.682
67.168
68.59
69.953
71.259
72.513
73.722
74.887
76.003
77.066
78.066
78.996
79.847
80.61
81.276
81.834
82.274
82.588
82.767
82.802
82.684
82.404
81.954
81.328
80.521
79.526
78.342
76.965
75.395
73.632
71.679
69.537
67.211
64.705
62.024
59.177
56.171
53.015
49.719
46.296
42.761
39.127
35.413
31.636
27.814
23.967
20.114
16.276
12.471
8.721
5.042
1.454
-2.026
-5.382
-8.598
-11.662
-14.561
-17.285
-19.828
-22.182
-24.343
-26.309
-28.079
-29.652
-31.032
-32.22
-33.221
-34.041
-34.685
-35.163
-35.484
-35.658
-35.698
-35.616
-35.427
-35.147
-34.791
-34.376
-33.92
-33.44
-32.955
-32.482
-32.041
-31.647
-31.319
-31.07
-30.916
-30.869
-30.939
-31.136
-31.465
-31.93
-32.534
-33.279
-34.162
-35.182
-36.334
-37.613
-39.01
-40.517
-42.124
-43.819
-45.587
-47.412
-49.279
-51.169
-53.065
-54.947
-56.794
-58.583
-60.295
-61.906
-63.394
-64.735
-65.906
-66.882
-67.643
-68.167
-68.437
-68.434
-68.142
-67.55
-66.647
-65.428
-63.888
-62.025
-59.839
-57.331
-54.51
-51.384
-47.965
-44.265
-40.301
-36.095
-31.675
-27.069
-22.309
-17.424
-12.45
-7.422
-2.379
2.643
7.614
12.502
17.274
21.89
26.312
30.498
34.414
38.025
41.296
44.193
46.686
48.757
50.402
51.614
52.388
52.703
52.53
51.852
50.665
48.966
46.761
44.071
40.924
37.379
33.53
29.46
25.242
20.935
16.579
12.234
7.978
3.893
0.069
-3.426
-6.545
-9.207
-11.355
-13.015
-14.252
-15.208
-16.064
-16.915
-17.854
-19.031
-20.598
-22.729
-25.571
-29.144
-33.524
-38.968
-45.595
-53.367
-61.909
-70.324
-77.8
-83.803
-87.516
-87.897
-84.344
-76.738
-66.045
-54.516
-43.814
-35.173
-30.757
-32.74
-42.219
-56.541
-68.411
-69.844
-56.888
-35.29
-14.348
3.166
24.01
71.955
172.973
339.459
570.042
836.047
1096.159
1311.965
1447.133
1488.334
1440.376
1314.604
1131.929
909.529
659.603
401.446
159.569
-43.718
-190.945
-281.619
-335.226
-371.077
-401.449
-428.071
-439.678
-429.938
-402.088
-363.427
-324.367
-290.095
-260.132
-234.034
-211.447
-191.751
-174.335
-157.908
-141.497
-126.261
-113.755
-104.07
-96.301
-89.73
-84.038
-79.437
-75.955
-72.356
-67.521
-61.518
-55.246
-49.566
-44.864
-41.031
-37.852
-35.538
-34.216
-33.542
-32.803
-31.329
-28.8
-25.173
-20.577
-15.079
-8.709
-1.598
6.02
13.91
21.907
29.899
37.825
45.598
53.069
60.128
66.69
72.699
78.138
83.002
87.287
91.029
94.279
97.075
99.45
101.43
103.028
104.273
105.195
105.822
106.185
106.318
106.253
106.027
105.667
105.195
104.627
103.974
103.248
102.461
101.63
100.77
99.897
99.026
98.17
97.342
96.553
95.809
95.112
94.46
93.851
93.282
92.748
92.245
91.763
91.295
90.832
90.366
89.887
89.384
88.842
88.25
87.595
86.861
86.036
85.103
84.049
82.858
81.518
80.014
78.335
76.469
74.407
72.138
69.658
66.959
64.039
60.896
57.529
53.942
50.139
46.128
41.918
37.52
32.944
28.205
23.318
18.297
13.159
7.919
2.594
-2.799
-8.241
-13.716
-19.203
-24.685
-30.143
-35.557
-40.908
-46.178
-51.347
-56.398
-61.315
-66.08
-70.679
-75.099
-79.325
-83.349
-87.159
-90.75
-94.114
-97.248
-100.151
-102.822
-105.263
-107.479
-109.473
-111.253
-112.826
-114.2
-115.385
-116.389
-117.223
-117.898
-118.425
-118.814
-119.08
-119.235
-119.292
-119.264
-119.166
-119.011
-118.814
-118.588
-118.346
-118.1
-117.863
-117.645
-117.456
-117.307
-117.203
-117.151
-117.156
-117.219
-117.342
-117.523
-117.757
-118.039
-118.361
-118.715
-119.093
-119.483
-119.875
-120.256
-120.614
-120.938
-121.214
-121.429
-121.568
-121.615
-121.556
-121.377
-121.063
-120.6
-119.972
-119.167
-118.172
-116.977
-115.572
-113.95
-112.1
-110.017
-107.699
-105.146
-102.358
-99.339
-96.097
-92.642
-88.994
-85.175
-81.205
-77.109
-72.912
-68.644
-64.334
-60.011
-55.7
-51.424
-47.208
-43.084
-39.085
-35.244
-31.591
-28.156
-24.968
-22.057
-19.452
-17.169
-15.215
-13.596
-12.325
-11.422
-10.923
-10.854
-11.225
-12.046
-13.321
-15.036
-17.174
-19.687
-22.498
-25.542
-28.76
-32.114
-35.58
-39.114
-42.653
-46.127
-49.458
-52.587
-55.468
-58.027
-60.215
-62.066
-63.646
-65.086
-66.535
-68.043
-69.674
-71.549
-73.762
-76.419
-79.612
-83.352
-87.752
-93.129
-99.607
-107.083
-115.206
-123.173
-130.208
-135.693
-138.72
-138.166
-133.548
-125.206
-114.159
-102.349
-91.946
-85.067
-84.323
-92.354
-107.568
-124.047
-136.666
-141.584
-142.589
-148.715
-158.632
-160.547
-132.724
-50.309
94.146
292.005
523.417
758.037
971.081
1137.985
1231.456
1240.933
1164.709
1017.083
834.329
642.014
456.211
285.135
120.869
-36.845
-178.634
-296.415
-381.827
-432.958
-455.427
-455.812
-439.794
-413.056
-382.109
-353.015
-329.666
-313.588
-303.895
-298.568
-296.22
-295.446
-293.818
-288.809
-278.977
-264.077
-245.131
-223.814
-201.385
-178.785
-157.113
-137.476
-120.598
-106.799
-95.94
-87.539
-81.166
-76.481
-73.14
-70.829
-69.247
-68.068
-66.955
-65.613
-63.822
-61.439
-58.385
-54.598
-50.032
-44.687
-38.637
-32.006
-24.922
-17.499
-9.821
-1.959
5.981
13.871
21.573
28.954
35.927
42.449
48.488
54.026
59.062
63.61
67.718
71.452
74.862
77.986
80.856
83.498
85.95
88.257
90.455
92.58
94.661
96.722
98.784
100.867
102.983
105.137
107.331
109.559
111.821
114.118
116.447
118.808
121.195
123.602
126.024
128.451
130.873
133.274
135.639
137.951
140.19
142.339
144.377
146.285
148.042
149.628
151.023
152.208
153.162
153.866
154.302
154.453
154.303
153.838
153.046
151.914
150.436
148.604
146.416
143.87
140.966
137.707
134.1
130.152
125.874
121.278
116.378
111.19
105.732
100.024
94.087
87.944
81.62
75.138
68.525
61.807
55.011
48.164
41.292
34.424
27.585
20.804
14.105
7.515
1.058
-5.242
-11.363
-17.284
-22.987
-28.454
-33.67
-38.622
-43.298
-47.691
-51.793
-55.599
-59.108
-62.319
-65.233
-67.854
-70.189
-72.243
-74.026
-75.547
-76.817
-77.849
-78.655
-79.252
-79.652
-79.872
-79.929
-79.839
-79.621
-79.29
-78.866
-78.365
-77.805
-77.203
-76.576
-75.939
-75.307
-74.694
-74.114
-73.579
-73.1
-72.687
-72.346
-72.083
-71.904
-71.811
-71.803
-71.88
-72.037
-72.271
-72.575
-72.943
-73.368
-73.84
-74.348
-74.882
-75.431
-75.983
-76.524
-77.04
-77.517
-77.942
-78.3
-78.581
-78.769
-78.851
-78.815
-78.649
-78.344
-77.892
-77.281
-76.502
-75.55
-74.42
-73.112
-71.623
-69.956
-68.113
-66.103
-63.939
-61.638
-59.215
-56.688
-54.076
-51.4
-48.686
-45.953
-43.219
-40.503
-37.821
-35.197
-32.656
-30.223
-27.921
-25.776
-23.81
-22.051
-20.521
-19.233
-18.186
-17.388
-16.841
-16.567
-16.597
-16.947
-17.628
-18.649
-20.015
-21.717
-23.725
-25.976
-28.379
-30.85
-33.317
-35.734
-38.065
-40.255
-42.244
-43.966
-45.357
-46.379
-46.998
-47.15
-46.788
-45.951
-44.764
-43.422
-42.173
-41.177
-40.532
-40.401
-40.943
-42.291
-44.573
-47.864
-52.15
-57.61
-64.564
-72.995
-82.743
-93.324
-103.708
-112.929
-120.15
-124.078
-123.506
-118.354
-108.736
-95.42
-80.93
-67.776
-58.394
-56.124
-60.233
-64.632
-65.332
-60.771
-56.082
-62.696
-80.867
-93.696
-72.327
10.021
162.469
366.997
590.669
810.771
1009.93
1179.389
1311.947
1382.401
1372.23
1276.553
1100.415
867.255
601.896
324.195
60.757
-159.057
-315.477
-399.606
-424.352
-422.716
-416.947
-417.011
-421.38
-415.494
-396.013
-369.211
-340.995
-319.28
-306.268
-298.825
-294.727
-291.826
-287.401
-279.383
-266.807
-249.639
-229.017
-206.661
-183.85
-161.465
-140.596
-122.395
-107.504
-96.159
-88.146
-82.871
-79.854
-78.746
-79.144
-80.614
-82.745
-85.071
-87.165
-88.787
-89.754
-89.939
-89.293
-87.749
-85.275
-81.937
-77.847
-73.123
-67.889
-62.242
-56.26
-50.062
-43.792
-37.612
-31.691
-26.138
-21.011
-16.349
-12.166
-8.465
-5.237
-2.432
0.024
2.187
4.103
5.804
7.314
8.672
9.928
11.123
12.3
13.492
14.722
16.017
17.396
18.875
20.461
22.154
23.951
25.851
27.859
29.975
32.202
34.54
36.983
39.527
42.168
44.895
47.695
50.55
53.441
56.35
59.257
62.14
64.978
67.748
70.429
73
75.439
77.725
79.838
81.758
83.467
84.948
86.185
87.163
87.868
88.289
88.416
88.241
87.758
86.961
85.848
84.419
82.674
80.62
78.261
75.606
72.665
69.453
65.985
62.278
58.353
54.231
49.935
45.488
40.917
36.247
31.505
26.717
21.909
17.108
12.34
7.63
3.002
-1.519
-5.911
-10.154
-14.226
-18.11
-21.787
-25.243
-28.464
-31.437
-34.154
-36.606
-38.789
-40.698
-42.333
-43.696
-44.79
-45.62
-46.194
-46.523
-46.616
-46.488
-46.154
-45.631
-44.937
-44.09
-43.111
-42.022
-40.844
-39.598
-38.307
-36.991
-35.673
-34.372
-33.11
-31.904
-30.773
-29.733
-28.8
-27.988
-27.309
-26.773
-26.389
-26.163
-26.096
-26.192
-26.45
-26.865
-27.431
-28.14
-28.982
-29.945
-31.015
-32.176
-33.409
-34.696
-36.014
-37.341
-38.653
-39.926
-41.132
-42.246
-43.242
-44.094
-44.778
-45.268
-45.541
-45.574
-45.347
-44.841
-44.041
-42.932
-41.5
-39.736
-37.636
-35.198
-32.421
-29.309
-25.87
-22.116
-18.067
-13.746
-9.176
-4.385
0.597
5.739
11.003
16.355
21.764
27.196
32.618
37.988
43.261
48.394
53.343
58.069
62.529
66.686
70.497
73.936
76.987
79.631
81.847
83.603
84.851
85.554
85.692
85.248
84.219
82.618
80.466
77.812
74.74
71.326
67.642
63.748
59.674
55.474
51.226
47.013
42.949
39.128
35.604
32.454
29.737
27.411
25.415
23.622
21.832
19.941
17.847
15.363
12.331
8.581
3.937
-1.679
-8.434
-16.689
-26.571
-37.903
-50.181
-62.421
-73.733
-83.496
-90.757
-94.321
-93.641
-88.971
-81.688
-74.192
-68.184
-65.168
-67.281
-76.026
-91.973
-111.466
-126.084
-130.988
-123.597
-104.778
-81.635
-46.902
13.525
107.855
251.836
441.408
654.982
879.906
1086.763
1247.554
1351.823
1381.678
1337.641
1238.286
1094.886
926.024
744.65
550.887
351.186
152.433
-36.581
-201.762
-334.093
-429.539
-487.894
-513.759
-512.765
-490.149
-452.514
-406.74
-359.241
-315.937
-280.004
-251.977
-231.402
-217.149
-207.38
-200.198
-193.378
-184.562
-172.921
-158.763
-142.768
-126.013
-109.473
-93.902
-80.266
-69.547
-62.066
-57.685
-55.987
-56.309
-58.13
-61.007
-64.413
-67.781
-70.62
-72.609
-73.602
-73.566
-72.496
-70.376
-67.205
-63.043
-58.018
-52.265
-45.924
-39.121
-31.963
-24.592
-17.167
-9.851
-2.808
3.851
10.069
15.805
21.042
25.781
30.023
33.801
37.175
40.189
42.878
45.275
47.403
49.294
50.99
52.531
53.953
55.285
56.548
57.764
58.95
60.119
61.28
62.436
63.585
64.729
65.873
67.021
68.178
69.345
70.522
71.708
72.902
74.1
75.293
76.473
77.629
78.748
79.819
80.829
81.766
82.614
83.36
83.991
84.493
84.853
85.055
85.088
84.938
84.592
84.04
83.27
82.271
81.035
79.553
77.82
75.832
73.585
71.079
68.314
65.293
62.02
58.502
54.745
50.758
46.552
42.138
37.531
32.745
27.795
22.698
17.471
12.133
6.701
1.194
-4.37
-9.972
-15.594
-21.217
-26.824
-32.396
-37.917
-43.369
-48.735
-54.001
-59.151
-64.172
-69.05
-73.776
-78.341
-82.735
-86.952
-90.988
-94.839
-98.503
-101.98
-105.27
-108.375
-111.296
-114.038
-116.605
-119.005
-121.241
-123.323
-125.257
-127.053
-128.719
-130.264
-131.699
-133.031
-134.27
-135.427
-136.511
-137.532
-138.499
-139.421
-140.307
-141.164
-142
-142.819
-143.627
-144.426
-145.216
-146
-146.776
-147.543
-148.295
-149.029
-149.738
-150.416
-151.057
-151.649
-152.183
-152.648
-153.033
-153.327
-153.518
-153.592
-153.536
-153.337
-152.983
-152.463
-151.765
-150.876
-149.785
-148.483
-146.962
-145.215
-143.237
-141.026
-138.582
-135.91
-133.016
-129.909
-126.6
-123.101
-119.427
-115.594
-111.622
-107.528
-103.329
-99.047
-94.709
-90.343
-85.978
-81.641
-77.36
-73.166
-69.096
-65.19
-61.479
-57.986
-54.734
-51.755
-49.084
-46.773
-44.853
-43.331
-42.213
-41.504
-41.206
-41.313
-41.791
-42.564
-43.552
-44.685
-45.914
-47.216
-48.543
-49.825
-50.98
-51.918
-52.61
-53.082
-53.352
-53.412
-53.284
-53.025
-52.785
-52.833
-53.418
-54.718
-56.868
-59.968
-64.126
-69.476
-76.125
-84.102
-93.341
-103.726
-115.168
-127.67
-141.232
-155.671
-170.524
-185.007
-198.095
-208.719
-215.851
-218.473
-215.719
-206.962
-191.956
-171.7
-148.426
-124.95
-104.686
-87.566
-69.847
-49.854
-25.465
-1.442
9.166
5.371
-7.057
-11.295
26.859
124.164
283.371
497.135
732.018
958.018
1148.087
1267.117
1297.135
1233.139
1083.094
881.6
666.564
461.72
280.661
120.309
-28.933
-164.121
-277.716
-363.307
-414.867
-434.495
-429.501
-405.65
-369.359
-328.423
-289.247
-256.09
-231.256
-214.397
-203.78
-198.161
-195.962
-194.389
-190.56
-182.796
-170.708
-155.132
-137.484
-118.821
-99.971
-82.031
-66.209
-53.221
-43.263
-36.092
-31.119
-27.851
-25.965
-25.096
-24.84
-24.845
-24.732
-24.177
-23.039
-21.211
-18.609
-15.211
-10.975
-5.893
-0.059
6.405
13.376
20.722
28.345
36.162
44.056
51.899
59.551
66.87
73.764
80.178
86.071
91.423
96.22
100.461
104.182
107.437
110.268
112.708
114.784
116.515
117.935
119.083
119.994
120.703
121.241
121.63
121.897
122.063
122.147
122.161
122.116
122.016
121.871
121.691
121.489
121.274
121.057
120.844
120.642
120.455
120.287
120.134
119.995
119.864
119.733
119.597
119.445
119.27
119.058
118.801
118.484
118.096
117.623
117.05
116.366
115.556
114.608
113.51
112.25
110.819
109.207
107.407
105.411
103.213
100.811
98.2
95.38
92.352
89.116
85.679
82.045
78.222
74.22
70.048
65.722
61.254
56.66
51.956
47.16
42.291
37.367
32.409
27.437
22.47
17.529
12.633
7.804
3.059
-1.584
-6.107
-10.494
-14.731
-18.804
-22.701
-26.411
-29.925
-33.237
-36.34
-39.232
-41.91
-44.375
-46.628
-48.674
-50.517
-52.165
-53.626
-54.908
-56.024
-56.983
-57.799
-58.486
-59.055
-59.523
-59.902
-60.207
-60.453
-60.653
-60.819
-60.964
-61.099
-61.237
-61.385
-61.554
-61.75
-61.979
-62.245
-62.552
-62.9
-63.287
-63.71
-64.162
-64.636
-65.124
-65.614
-66.095
-66.552
-66.971
-67.335
-67.63
-67.835
-67.933
-67.904
-67.73
-67.392
-66.874
-66.157
-65.225
-64.065
-62.665
-61.015
-59.106
-56.93
-54.481
-51.757
-48.755
-45.477
-41.928
-38.111
-34.036
-29.715
-25.167
-20.417
-15.492
-10.419
-5.227
0.048
5.37
10.705
16.021
21.293
26.49
31.578
36.522
41.282
45.821
50.106
54.1
57.767
61.079
64.01
66.548
68.694
70.44
71.772
72.67
73.091
73.004
72.392
71.238
69.545
67.33
64.627
61.497
58.041
54.342
50.48
46.526
42.521
38.528
34.615
30.851
27.341
24.189
21.479
19.271
17.563
16.293
15.384
14.726
14.161
13.518
12.588
11.202
9.252
6.63
3.267
-1.053
-6.696
-13.778
-22.27
-31.906
-41.984
-51.783
-60.641
-67.399
-70.8
-70.528
-66.487
-59.226
-50.957
-43.829
-40.03
-43.122
-52.832
-63.847
-72.671
-74.799
-72.93
-80.596
-99.429
-123.002
-131.786
-87.454
28.094
218.071
472.224
746.435
1003.165
1208.243
1322.59
1344.519
1286.005
1163.068
1010.545
841.904
652.876
450.686
241.617
40.907
-120.757
-232.691
-302.995
-341.878
-368.32
-390.079
-398.988
-392.418
-370.419
-337.29
-304.303
-277.311
-256.782
-242.24
-231.572
-223.051
-215.794
-208.077
-197.543
-183.262
-165.737
-145.797
-124.638
-103.322
-82.521
-63.232
-46.703
-33.557
-23.91
-17.694
-14.512
-13.985
-15.789
-19.305
-23.871
-28.942
-33.975
-38.64
-42.76
-46.137
-48.641
-50.219
-50.813
-50.427
-49.102
-46.79
-43.449
-39.119
-33.915
-28.084
-21.882
-15.521
-9.207
-3.091
2.704
8.071
12.969
17.417
21.443
25.08
28.355
31.242
33.701
35.74
37.394
38.745
39.879
40.855
41.73
42.557
43.398
44.3
45.282
46.329
47.422
48.551
49.716
50.934
52.217
53.571
54.992
56.475
58.016
59.609
61.249
62.918
64.595
66.261
67.904
69.52
71.1
72.634
74.107
75.504
76.812
78.018
79.105
80.055
80.849
81.467
81.898
82.127
82.142
81.934
81.49
80.804
79.871
78.684
77.243
75.543
73.585
71.369
68.897
66.175
63.208
60.004
56.572
52.923
49.069
45.025
40.805
36.424
31.897
27.241
22.473
17.609
12.667
7.664
2.619
-2.449
-7.521
-12.578
-17.603
-22.58
-27.491
-32.324
-37.065
-41.703
-46.228
-50.631
-54.904
-59.04
-63.035
-66.884
-70.581
-74.125
-77.515
-80.752
-83.839
-86.777
-89.57
-92.223
-94.742
-97.131
-99.396
-101.544
-103.579
-105.508
-107.34
-109.082
-110.743
-112.332
-113.858
-115.328
-116.755
-118.145
-119.505
-120.841
-122.156
-123.454
-124.738
-126.007
-127.259
-128.491
-129.702
-130.891
-132.062
-133.211
-134.336
-135.435
-136.506
-137.547
-138.549
-139.498
-140.376
-141.166
-141.857
-142.436
-142.895
-143.222
-143.403
-143.432
-143.311
-143.033
-142.589
-141.957
-141.093
-139.98
-138.624
-137.045
-135.283
-133.37
-131.323
-129.183
-127.013
-124.849
-122.713
-120.584
-118.388
-116.095
-113.706
-111.251
-108.8
-106.376
-103.942
-101.464
-98.896
-96.186
-93.313
-90.194
-86.682
-82.728
-78.347
-73.641
-68.837
-64.072
-59.407
-54.893
-50.529
-46.371
-42.558
-39.194
-36.352
-34.132
-32.61
-31.926
-32.315
-33.849
-36.466
-40.01
-44.167
-48.713
-53.547
-58.54
-63.602
-68.619
-73.378
-77.721
-81.588
-84.9
-87.622
-89.691
-90.929
-91.29
-90.879
-89.902
-88.709
-87.542
-86.518
-85.794
-85.478
-85.836
-87.345
-90.129
-94.033
-98.715
-103.367
-107.171
-109.601
-109.664
-106.243
-99.262
-88.883
-75.929
-63.058
-53.169
-48.897
-53.313
-65.536
-79.888
-92.502
-101.101
-109.509
-126.825
-151.367
-169.93
-158.532
-89.807
45.062
237.707
466.826
699.895
911.813
1079.174
1176.083
1193.626
1131.01
1001.177
837.293
662.051
488.992
325.055
163.44
4.83
-141.736
-268.026
-364.378
-427.335
-460.574
-468.853
-457.452
-431.992
-398.098
-361.569
-327.85
-300.013
-278.594
-263.112
-252.604
-245.749
-240.935
-236.042
-228.682
-217.812
-203.833
-187.557
-170.085
-152.355
-134.993
-118.906
-105.185
-94.358
-86.443
-81.163
-77.943
-76.328
-76.06
-76.774
-78.061
-79.518
-80.703
-81.346
-81.348
-80.629
-79.149
-76.863
-73.706
-69.699
-64.955
-59.584
-53.706
-47.419
-40.786
-33.907
-26.908
-19.926
-13.114
-6.571
-0.348
5.522
11.021
16.142
20.873
25.244
29.31
33.117
36.7
40.085
43.285
46.326
49.248
52.082
54.858
57.598
60.312
63.011
65.707
68.404
71.099
73.784
76.447
79.079
81.676
84.233
86.747
89.211
91.621
93.969
96.253
98.465
100.596
102.635
104.571
106.392
108.089
109.651
111.066
112.321
113.406
114.31
115.023
115.534
115.833
115.91
115.758
115.372
114.746
113.878
112.765
111.409
109.811
107.975
105.907
103.613
101.099
98.373
95.444
92.322
89.016
85.536
81.892
78.095
74.155
70.085
65.896
61.6
57.208
52.733
48.188
43.586
38.938
34.259
29.561
24.857
20.159
15.479
10.829
6.218
1.657
-2.848
-7.289
-11.662
-15.961
-20.185
-24.331
-28.399
-32.387
-36.298
-40.131
-43.889
-47.574
-51.187
-54.73
-58.204
-61.611
-64.952
-68.227
-71.437
-74.582
-77.662
-80.677
-83.629
-86.518
-89.344
-92.11
-94.815
-97.461
-100.05
-102.582
-105.055
-107.47
-109.824
-112.115
-114.34
-116.492
-118.567
-120.555
-122.451
-124.245
-125.928
-127.491
-128.922
-130.211
-131.347
-132.321
-133.123
-133.743
-134.172
-134.401
-134.424
-134.234
-133.827
-133.194
-132.331
-131.233
-129.898
-128.322
-126.505
-124.442
-122.134
-119.582
-116.788
-113.758
-110.498
-107.015
-103.321
-99.431
-95.366
-91.146
-86.794
-82.334
-77.793
-73.199
-68.582
-63.967
-59.378
-54.841
-50.382
-46.032
-41.822
-37.781
-33.938
-30.322
-26.96
-23.885
-21.117
-18.664
-16.538
-14.746
-13.313
-12.274
-11.656
-11.475
-11.742
-12.468
-13.65
-15.274
-17.294
-19.632
-22.208
-24.95
-27.805
-30.742
-33.716
-36.665
-39.506
-42.152
-44.547
-46.662
-48.459
-49.876
-50.909
-51.638
-52.224
-52.911
-53.891
-55.262
-57.129
-59.645
-62.966
-67.252
-72.648
-79.181
-86.962
-96.258
-107.139
-119.478
-132.831
-146.271
-158.862
-169.792
-177.969
-182.215
-182.066
-177.692
-170.139
-161.378
-153.261
-147.799
-147.478
-154.315
-166.441
-178.326
-183.92
-178.624
-166.368
-154.846
-145.591
-131.931
-92.694
-4.655
144.596
355.675
604.724
856.504
1075.979
1223.475
1280.588
1249.26
1137.792
976.831
794.004
600.804
415.182
240.664
76.492
-64.895
-185.095
-284.184
-359.377
-418.455
-459.323
-479.823
-482.426
-467.372
-441.879
-413.906
-387.657
-366.036
-348.72
-334.464
-323.211
-314.433
-306.749
-298.376
-287.194
-272.338
-254.397
-234.366
-213.299
-192.033
-171.23
-151.757
-134.672
-120.541
-109.403
-100.998
-94.797
-90.365
-87.425
-85.669
-84.711
-84.165
-83.642
-82.797
-81.453
-79.507
-76.879
-73.519
-69.373
-64.441
-58.797
-52.569
-45.889
-38.869
-31.6
-24.159
-16.651
-9.205
-1.959
4.955
11.454
17.497
23.061
28.132
32.707
36.804
40.468
43.764
46.745
49.449
51.908
54.145
56.196
58.1
59.894
61.61
63.271
64.897
66.504
68.105
69.706
71.309
72.909
74.496
76.063
77.607
79.12
80.599
82.036
83.419
84.741
85.99
87.152
88.212
89.153
89.957
90.606
91.083
91.372
91.457
91.324
90.958
90.35
89.488
88.363
86.969
85.3
83.355
81.132
78.634
75.866
72.835
69.55
66.023
62.27
58.305
54.146
49.813
45.328
40.713
35.994
31.195
26.342
21.461
16.583
11.741
6.963
2.266
-2.325
-6.79
-11.103
-15.232
-19.157
-22.885
-26.388
-29.61
-32.506
-35.03
-37.172
-38.994
-40.507
-41.643
-42.453
-43.095
-43.694
-44.39
-45.217
-46.001
-46.699
-47.533
-48.328
-48.37
-47.504
-45.98
-43.728
-41.535
-38.053
-28.713
-14.354
0.717
9.691
-0.484
-29.496
-64.162
-91.504
-93.064
-67.035
-31.018
1.338
15.497
8.409
-6.803
-21.912
-31.491
-33.66
-33.734
-34.24
-34.947
-36.04
-36.702
-36.676
-36.663
-36.869
-37.146
-37.487
-37.899
-38.331
-38.729
-39.004
-39.011
-38.688
-38.073
-37.168
-35.951
-34.416
-32.548
-30.348
-27.829
-25.001
-21.866
-18.432
-14.714
-10.729
-6.499
-2.051
2.589
7.392
12.331
17.375
22.492
27.649
32.804
37.92
42.958
47.875
52.631
57.182
61.484
65.502
69.215
72.593
75.611
78.234
80.412
82.112
83.324
84.024
84.201
83.858
83.001
81.683
79.999
78.024
75.833
73.481
70.987
68.407
65.813
63.266
60.858
58.632
56.589
54.779
53.253
51.995
50.947
49.916
48.603
46.795
44.343
41.135
37.098
32.089
25.97
18.67
10.15
0.469
-10.429
-22.782
-36.593
-51.631
-67.312
-82.49
-95.988
-106.847
-113.768
-115.535
-111.866
-102.61
-88.54
-72.231
-56.109
-42.891
-36.435
-36.385
-37.928
-38.341
-32.903
-23.168
-20.98
-25.8
-30.674
-19.327
41.996
169.154
362.556
613.318
887.064
1149.893
1372.845
1520.671
1571.872
1520.779
1368.216
1132.881
848.757
544.051
253.032
12.61
-164.584
-272.673
-320.975
-342.42
-354.857
-366.421
-378.409
-376.271
-355.829
-323.518
-286.516
-253.96
-228.244
-206.373
-186.173
-166.131
-145.766
-124.709
-101.608
-77.022
-54.065
-35.157
-21.774
-13.893
-9.61
-7.929
-8.974
-11.657
-13.848
-14.034
-11.157
-5.482
1.13
7.698
14.107
20.017
25.187
29.426
32.475
34.722
37.172
40.402
44.635
49.933
56.059
62.879
70.373
78.372
86.629
94.933
103.099
111.006
118.599
125.819
132.604
138.899
144.645
149.82
154.421
158.473
162.038
165.159
167.861
170.168
172.092
173.655
174.895
175.837
176.502
176.909
177.079
177.038
176.822
176.456
175.955
175.329
174.579
173.716
172.754
171.708
170.59
169.412
168.186
166.921
165.633
164.33
163.015
161.691
160.356
159.008
157.647
156.272
154.879
153.464
152.023
150.552
149.046
147.501
145.909
144.265
142.561
140.791
138.949
137.029
135.025
132.931
130.742
128.455
126.065
123.57
120.969
118.261
115.447
112.53
109.512
106.399
103.195
99.908
96.545
93.116
89.632
86.102
82.539
78.954
75.358
71.764
68.183
64.627
61.107
57.633
54.216
50.864
47.587
44.393
41.288
38.281
35.375
32.578
29.891
27.32
24.865
22.527
20.306
18.2
16.206
14.322
12.542
10.859
9.268
7.761
6.33
4.967
3.664
2.41
1.197
0.015
-1.143
-2.286
-3.422
-4.556
-5.694
-6.841
-7.998
-9.167
-10.347
-11.538
-12.74
-13.95
-15.162
-16.372
-17.575
-18.765
-19.933
-21.072
-22.17
-23.217
-24.202
-25.114
-25.941
-26.67
-27.287
-27.78
-28.137
-28.347
-28.399
-28.283
-27.988
-27.504
-26.828
-25.955
-24.884
-23.612
-22.141
-20.478
-18.636
-16.631
-14.477
-12.194
-9.8
-7.32
-4.78
-2.202
0.392
2.985
5.554
8.071
10.506
12.828
15.01
17.023
18.839
20.425
21.753
22.802
23.568
24.041
24.207
24.038
23.495
22.546
21.179
19.377
17.135
14.459
11.365
7.9
4.147
0.178
-3.949
-8.193
-12.532
-16.92
-21.288
-25.556
-29.641
-33.483
-37.038
-40.231
-43.011
-45.42
-47.543
-49.543
-51.611
-53.829
-56.283
-59.117
-62.445
-66.392
-71.075
-76.524
-82.865
-90.447
-99.402
-109.6
-120.687
-131.815
-142.118
-150.909
-157.109
-159.342
-157.019
-150.464
-140.637
-129.514
-119.353
-112.287
-111.154
-119.103
-134.312
-150.039
-161.037
-163.435
-162.514
-170.274
-185.284
-192.739
-166.066
-74.695
90.399
315.453
573.946
831.947
1062.45
1246.814
1366.96
1410.962
1375.087
1261.93
1084.023
858.585
601.192
333.508
83.926
-123.577
-270.996
-356.889
-401.881
-426.589
-443.606
-455.935
-454.036
-432.552
-396.545
-355.049
-318.352
-291.778
-274.782
-265.155
-260.369
-258.394
-256.714
-252.219
-243.215
-229.502
-211.984
-192.238
-171.515
-150.719
-131.066
-113.94
-100.135
-89.886
-82.955
-78.709
-76.63
-76.349
-77.421
-79.362
-81.741
-84.1
-86.043
-87.359
-87.883
-87.492
-86.141
-83.766
-80.341
-75.934
-70.658
-64.638
-58.005
-50.868
-43.318
-35.486
-27.524
-19.599
-11.888
-4.503
2.484
9.025
15.092
20.666
25.741
30.351
34.552
38.385
41.88
45.057
47.929
50.522
52.874
55.018
56.987
58.803
60.483
62.047
63.51
64.882
66.167
67.364
68.468
69.478
70.4
71.237
71.994
72.674
73.278
73.808
74.266
74.651
74.955
75.173
75.296
75.313
75.219
75.001
74.649
74.154
73.505
72.693
71.71
70.545
69.19
67.636
65.875
63.901
61.708
59.291
56.644
53.767
50.657
47.314
43.741
39.94
35.916
31.674
27.221
22.567
17.721
12.697
7.506
2.164
-3.312
-8.903
-14.589
-20.349
-26.163
-32.008
-37.862
-43.702
-49.507
-55.256
-60.928
-66.503
-71.961
-77.285
-82.458
-87.461
-92.282
-96.906
-101.321
-105.517
-109.483
-113.214
-116.704
-119.95
-122.95
-125.704
-128.215
-130.485
-132.521
-134.331
-135.922
-137.306
-138.494
-139.501
-140.342
-141.031
-141.587
-142.025
-142.363
-142.618
-142.806
-142.944
-143.047
-143.129
-143.205
-143.287
-143.388
-143.52
-143.691
-143.913
-144.19
-144.531
-144.938
-145.416
-145.963
-146.578
-147.257
-147.994
-148.784
-149.618
-150.485
-151.374
-152.27
-153.16
-154.028
-154.855
-155.624
-156.315
-156.907
-157.382
-157.721
-157.907
-157.921
-157.748
-157.374
-156.785
-155.973
-154.926
-153.636
-152.097
-150.303
-148.253
-145.948
-143.388
-140.579
-137.527
-134.248
-130.758
-127.081
-123.236
-119.25
-115.151
-110.97
-106.737
-102.483
-98.233
-94.013
-89.853
-85.788
-81.854
-78.087
-74.518
-71.179
-68.102
-65.316
-62.849
-60.713
-58.913
-57.452
-56.342
-55.609
-55.292
-55.419
-56.008
-57.072
-58.615
-60.631
-63.104
-65.986
-69.199
-72.668
-76.329
-80.133
-84.05
-88.028
-92
-95.881
-99.569
-102.979
-106.032
-108.659
-110.837
-112.582
-113.961
-115.088
-116.089
-117.098
-118.282
-119.781
-121.71
-124.182
-127.244
-131.061
-136.005
-142.264
-149.81
-158.424
-167.447
-176.187
-184.174
-190.495
-193.819
-193.45
-189.427
-182.432
-174.294
-167.199
-162.872
-163.776
-173.298
-190.348
-209.286
-225.499
-232.395
-231.796
-236.695
-248.084
-260.022
-255.482
-198.781
-72.664
123.57
380.284
660.434
928.962
1156.883
1309.45
1369.021
1330.251
1193.182
979.747
722.987
454.022
209.691
13.894
-130.896
-229.756
-301.488
-363.896
-420.365
-468.011
-496.622
-498.745
-477.018
-439.623
-397.94
-360.358
-329.671
-305.762
-287.198
-272.92
-262.134
-253.199
-243.894
-231.914
-216.263
-197.468
-176.427
-154.222
-131.828
-109.983
-89.7
-72.142
-57.841
-46.77
-38.64
-32.861
-28.96
-26.666
-25.549
-25.138
-25.001
-24.668
-23.854
-22.455
-20.372
-17.547
-13.95
-9.525
-4.303
1.587
8.031
14.904
22.093
29.528
37.096
44.66
52.078
59.192
65.9
72.154
77.924
83.195
87.971
92.254
96.079
99.517
102.622
105.435
107.995
110.323
112.453
114.431
116.298
118.09
119.838
121.559
123.275
125.003
126.756
128.542
130.359
132.203
134.072
135.968
137.89
139.837
141.807
143.79
145.782
147.773
149.752
151.705
153.614
155.461
157.226
158.892
160.438
161.845
163.093
164.162
165.035
165.693
166.119
166.296
166.207
165.837
165.173
164.201
162.91
161.286
159.319
157.002
154.326
151.287
147.88
144.104
139.959
135.448
130.576
125.351
119.782
113.88
107.66
101.137
94.331
87.26
79.946
72.411
64.68
56.777
48.727
40.555
32.287
23.949
15.564
7.159
-1.24
-9.61
-17.926
-26.162
-34.294
-42.299
-50.153
-57.833
-65.318
-72.586
-79.619
-86.398
-92.908
-99.134
-105.063
-110.686
-115.995
-120.982
-125.644
-129.978
-133.987
-137.671
-141.036
-144.088
-146.834
-149.284
-151.449
-153.341
-154.973
-156.358
-157.511
-158.449
-159.187
-159.744
-160.135
-160.381
-160.5
-160.511
-160.434
-160.288
-160.093
-159.867
-159.629
-159.397
-159.188
-159.017
-158.898
-158.844
-158.865
-158.97
-159.166
-159.458
-159.845
-160.328
-160.905
-161.57
-162.318
-163.141
-164.029
-164.97
-165.953
-166.962
-167.984
-169.002
-169.998
-170.952
-171.847
-172.661
-173.378
-173.976
-174.434
-174.732
-174.852
-174.776
-174.486
-173.965
-173.196
-172.167
-170.865
-169.282
-167.412
-165.248
-162.791
-160.044
-157.017
-153.723
-150.178
-146.398
-142.404
-138.221
-133.874
-129.388
-124.786
-120.091
-115.33
-110.532
-105.735
-100.973
-96.281
-91.694
-87.245
-82.973
-78.916
-75.101
-71.545
-68.266
-65.287
-62.645
-60.396
-58.581
-57.224
-56.352
-55.979
-56.104
-56.724
-57.802
-59.263
-61.039
-63.065
-65.29
-67.699
-70.252
-72.882
-75.504
-78.007
-80.311
-82.381
-84.17
-85.642
-86.826
-87.806
-88.779
-90.008
-91.671
-93.929
-96.902
-100.682
-105.455
-111.281
-118.061
-125.902
-135.016
-145.431
-157.239
-170.234
-183.53
-196.733
-209.995
-222.257
-231.858
-238.245
-240.442
-239.991
-243.023
-250.326
-259.049
-265.904
-258.802
-233.464
-198.975
-163.997
-150.325
-176.012
-232.278
-301.417
-345.158
-317.792
-204.862
-10.017
240.681
505.152
758.477
982.866
1165.711
1297.738
1359.764
1337.16
1223.651
1028.143
780.911
515.951
270.206
70.243
-80.458
-187.936
-269.534
-341.617
-406.452
-459.945
-492.123
-495.928
-474.18
-435.324
-390.754
-349.224
-314.056
-285.463
-262.289
-243.607
-228.664
-215.989
-203.437
-188.591
-170.358
-149.071
-125.464
-100.626
-75.587
-51.159
-28.491
-8.893
6.993
18.996
27.159
31.987
33.959
33.51
31.383
28.278
24.767
21.402
18.505
16.242
14.808
14.306
14.767
16.274
18.836
22.461
27.26
33.213
40.217
48.116
56.607
65.419
74.34
83.128
91.603
99.65
107.163
114.114
120.546
126.46
131.867
136.771
141.11
144.871
148.083
150.789
153.087
155.069
156.795
158.342
159.792
161.197
162.602
164.024
165.442
166.85
168.256
169.667
171.109
172.601
174.148
175.758
177.433
179.171
180.974
182.837
184.742
186.679
188.637
190.611
192.601
194.602
196.604
198.595
200.564
202.497
204.378
206.191
207.914
209.527
211.009
212.345
213.516
214.507
215.301
215.882
216.238
216.355
216.223
215.831
215.17
214.233
213.015
211.513
209.723
207.646
205.283
202.638
199.718
196.529
193.082
189.387
185.459
181.309
176.956
172.415
167.703
162.839
157.842
152.734
147.534
142.264
136.946
131.599
126.244
120.901
115.59
110.329
105.135
100.025
95.015
90.119
85.349
80.719
76.239
71.918
67.762
63.779
59.972
56.345
52.9
49.636
46.551
43.642
40.906
38.335
35.924
33.664
31.544
29.554
27.684
25.922
24.255
22.669
21.153
19.692
18.274
16.884
15.511
14.139
12.757
11.353
9.914
8.43
6.891
5.287
3.611
1.856
0.018
-1.909
-3.925
-6.033
-8.23
-10.514
-12.88
-15.32
-17.827
-20.392
-23.002
-25.646
-28.309
-30.976
-33.63
-36.255
-38.834
-41.347
-43.774
-46.098
-48.298
-50.358
-52.256
-53.974
-55.494
-56.798
-57.871
-58.698
-59.266
-59.561
-59.574
-59.298
-58.729
-57.865
-56.706
-55.256
-53.524
-51.521
-49.267
-46.777
-44.074
-41.182
-38.127
-34.939
-31.651
-28.288
-24.882
-21.464
-18.068
-14.733
-11.496
-8.393
-5.462
-2.742
-0.273
1.905
3.763
5.282
6.44
7.215
7.581
7.496
6.938
5.902
4.373
2.347
-0.169
-3.164
-6.588
-10.353
-14.388
-18.626
-23.015
-27.536
-32.136
-36.751
-41.323
-45.761
-50.021
-54.088
-57.903
-61.409
-64.596
-67.498
-70.258
-73.108
-76.208
-79.66
-83.531
-87.863
-92.757
-98.297
-104.519
-111.444
-119.014
-127.312
-136.612
-146.908
-157.99
-169.373
-180.063
-189.123
-195.847
-199.03
-197.439
-190.898
-179.418
-163.805
-146.571
-129.79
-115.464
-107.256
-105.409
-105.28
-103.958
-97.443
-87.428
-86.016
-95.696
-108.295
-103.67
-50.179
68.23
247.578
467.68
698.875
919.449
1112.246
1263.182
1356.45
1370.535
1296.853
1136.186
899.315
616.883
316.784
30.645
-203.592
-371.188
-468.415
-506.845
-519.705
-525.615
-531.42
-535.771
-523.734
-491.005
-443.286
-387.656
-333.779
-285.741
-242.463
-203.917
-170.65
-143.28
-122.842
-109.143
-101.748
-100.751
-105.985
-116.212
-128.971
-141.856
-152.774
-160.554
-164.707
-164.854
-160.997
-153.932
-145.27
-136.4
-128.369
-121.655
-116.14
-111.69
-108.106
-104.905
-101.347
-96.914
-91.32
-84.519
-76.771
-68.287
-59.215
-49.752
-40.123
-30.507
-21.055
-11.878
-2.999
5.557
13.745
21.533
28.886
35.785
42.249
48.309
53.994
59.325
64.313
68.963
73.285
77.295
81.007
84.437
87.597
90.498
93.16
95.601
97.845
99.909
101.798
103.516
105.067
106.463
107.716
108.838
109.84
110.732
111.527
112.237
112.873
113.436
113.928
114.352
114.713
115.009
115.245
115.415
115.509
115.538
115.51
115.4
115.189
114.859
114.381
113.773
113.069
112.232
111.223
110.116
108.967
107.818
106.74
105.67
104.486
103.255
102.098
100.698
98.678
96.268
93.451
90.159
87.212
82.424
73.666
64.001
54.364
50.373
58.749
72.081
85.43
91.441
80.004
60.087
39.298
22.853
19.364
22.701
26.649
29.838
28.488
24.815
21.669
18.52
15.742
13.155
10.193
7.237
4.595
2.172
-0.052
-2.04
-3.801
-5.357
-6.723
-7.958
-9.132
-10.227
-11.224
-12.145
-12.996
-13.79
-14.542
-15.26
-15.946
-16.619
-17.296
-17.99
-18.716
-19.49
-20.324
-21.232
-22.228
-23.322
-24.527
-25.853
-27.306
-28.895
-30.621
-32.489
-34.498
-36.648
-38.933
-41.348
-43.882
-46.525
-49.266
-52.091
-54.985
-57.929
-60.905
-63.895
-66.878
-69.834
-72.741
-75.574
-78.309
-80.924
-83.395
-85.697
-87.807
-89.697
-91.347
-92.733
-93.836
-94.636
-95.115
-95.256
-95.044
-94.47
-93.527
-92.21
-90.517
-88.449
-86.015
-83.23
-80.114
-76.685
-72.968
-68.987
-64.773
-60.359
-55.775
-51.048
-46.205
-41.278
-36.304
-31.321
-26.372
-21.494
-16.724
-12.104
-7.675
-3.48
0.453
4.106
7.458
10.484
13.144
15.384
17.166
18.469
19.271
19.559
19.339
18.622
17.457
15.928
14.111
12.07
9.85
7.477
4.999
2.488
0.021
-2.317
-4.471
-6.41
-8.077
-9.435
-10.535
-11.469
-12.417
-13.603
-15.153
-17.177
-19.835
-23.285
-27.7
-33.234
-39.915
-47.805
-57.14
-68.026
-80.357
-93.705
-107.14
-119.769
-130.977
-139.904
-145.408
-146.754
-143.821
-137.533
-129.983
-122.778
-117.094
-114.875
-118.215
-128.441
-142.704
-153.724
-155.031
-143.155
-123.22
-104.438
-84.563
-53.28
7.791
120.313
284.978
490.091
719.834
946.512
1151.266
1315.395
1407.264
1408.423
1306.546
1104.993
841.47
556.327
290.662
76.072
-86.654
-206.449
-299.473
-380.979
-451.281
-504.762
-532.326
-528.672
-497.748
-449.074
-395.118
-345.385
-303.95
-271.65
-247.503
-230.281
-218.865
-211.235
-204.461
-195.664
-183.469
-167.995
-150.005
-130.638
-110.883
-91.6
-74.006
-59.335
-48.125
-40.358
-35.635
-33.273
-32.739
-33.633
-35.461
-37.711
-39.902
-41.605
-42.586
-42.763
-42.075
-40.493
-37.982
-34.512
-30.155
-25.037
-19.291
-13.058
-6.452
0.43
7.459
14.49
21.375
27.963
34.165
39.935
45.241
50.074
54.431
58.314
61.76
64.831
67.569
70.013
72.193
74.126
75.848
77.4
78.816
80.13
81.367
82.542
83.675
84.782
85.872
86.951
88.021
89.078
90.126
91.171
92.216
93.268
94.327
95.396
96.474
97.562
98.653
99.742
100.819
101.874
102.896
103.876
104.803
105.665
106.45
107.148
107.749
108.241
108.613
108.854
108.953
108.901
108.688
108.305
107.746
107.002
106.068
104.939
103.611
102.081
100.345
98.404
96.257
93.905
91.352
88.602
85.661
82.537
79.238
75.777
72.166
68.417
64.546
60.565
56.491
52.339
48.124
43.862
39.569
35.26
30.95
26.656
22.393
18.174
14.014
9.925
5.921
2.013
-1.788
-5.472
-9.029
-12.449
-15.726
-18.851
-21.819
-24.625
-27.266
-29.739
-32.043
-34.18
-36.151
-37.959
-39.606
-41.098
-42.441
-43.639
-44.7
-45.63
-46.437
-47.131
-47.719
-48.211
-48.618
-48.949
-49.214
-49.424
-49.589
-49.72
-49.826
-49.92
-50.01
-50.109
-50.228
-50.376
-50.566
-50.806
-51.106
-51.474
-51.919
-52.446
-53.061
-53.769
-54.573
-55.477
-56.482
-57.591
-58.804
-60.12
-61.538
-63.055
-64.667
-66.371
-68.158
-70.021
-71.951
-73.941
-75.98
-78.058
-80.163
-82.282
-84.402
-86.51
-88.591
-90.628
-92.604
-94.503
-96.308
-98.003
-99.573
-101.001
-102.274
-103.379
-104.303
-105.037
-105.572
-105.899
-106.01
-105.9
-105.567
-105.01
-104.228
-103.224
-102.003
-100.573
-98.951
-97.153
-95.198
-93.106
-90.898
-88.6
-86.238
-83.835
-81.411
-78.986
-76.582
-74.228
-71.952
-69.789
-67.768
-65.918
-64.27
-62.852
-61.689
-60.796
-60.175
-59.829
-59.768
-60.014
-60.605
-61.576
-62.946
-64.732
-66.939
-69.554
-72.55
-75.872
-79.43
-83.139
-86.926
-90.736
-94.537
-98.29
-101.935
-105.398
-108.583
-111.4
-113.783
-115.671
-117.039
-117.947
-118.482
-118.806
-119.139
-119.644
-120.481
-121.801
-123.682
-126.247
-129.682
-134.131
-139.848
-147.171
-156.171
-166.827
-178.831
-191.176
-202.741
-212.425
-218.759
-220.562
-217.466
-209.187
-196.825
-183.616
-172.724
-167.319
-168.653
-174.314
-181.461
-189.752
-204.436
-231.557
-269.54
-304.556
-306.344
-246.98
-118.883
67.323
279.622
490.448
693.994
887.172
1070.668
1228.325
1323.469
1333.488
1246.219
1075.543
858.076
617.976
381.35
161.907
-40.321
-214.016
-359.184
-476.095
-560.46
-618.526
-649.72
-653.967
-636.505
-600.87
-555.541
-509.192
-466.794
-431.28
-402.358
-378.597
-359.074
-342.204
-326.124
-308.826
-288.195
-263.751
-236.297
-206.897
-176.855
-147.338
-119.325
-94.08
-72.99
-56.713
-45.322
-38.522
-35.672
-36.249
-39.79
-45.639
-52.998
-61.042
-69.069
-76.642
-83.546
-89.593
-94.575
-98.233
-100.292
-100.626
-99.23
-96.145
-91.453
-85.228
-77.607
-68.844
-59.302
-49.408
-39.515
-29.844
-20.527
-11.664
-3.35
4.304
11.204
17.338
22.72
27.357
31.251
34.39
36.799
38.562
39.814
40.707
41.358
41.838
42.195
42.469
42.696
42.904
43.102
43.273
43.405
43.503
43.582
43.663
43.755
43.853
43.941
44.005
44.035
44.022
43.959
43.836
43.645
43.382
43.053
42.663
42.215
41.703
41.122
40.463
39.717
38.875
37.927
36.862
35.668
34.339
32.869
31.254
29.492
27.58
25.517
23.303
20.939
18.427
15.769
12.971
10.038
6.977
3.799
0.514
-2.866
-6.326
-9.852
-13.427
-17.035
-20.66
-24.284
-27.893
-31.468
-34.993
-38.45
-41.821
-45.091
-48.242
-51.259
-54.124
-56.825
-59.349
-61.687
-63.827
-65.764
-67.49
-69
-70.292
-71.361
-72.209
-72.834
-73.239
-73.428
-73.405
-73.179
-72.757
-72.149
-71.366
-70.421
-69.324
-68.09
-66.733
-65.265
-63.702
-62.059
-60.349
-58.588
-56.791
-54.972
-53.146
-51.326
-49.526
-47.757
-46.031
-44.359
-42.751
-41.216
-39.764
-38.402
-37.139
-35.982
-34.937
-34.01
-33.207
-32.531
-31.986
-31.574
-31.298
-31.157
-31.152
-31.283
-31.549
-31.948
-32.477
-33.133
-33.912
-34.811
-35.824
-36.946
-38.17
-39.49
-40.9
-42.391
-43.957
-45.589
-47.277
-49.012
-50.786
-52.59
-54.412
-56.241
-58.066
-59.876
-61.657
-63.399
-65.087
-66.707
-68.244
-69.686
-71.018
-72.228
-73.301
-74.224
-74.983
-75.57
-75.975
-76.188
-76.202
-76.009
-75.603
-74.984
-74.149
-73.097
-71.832
-70.356
-68.678
-66.813
-64.777
-62.585
-60.252
-57.799
-55.246
-52.616
-49.928
-47.197
-44.439
-41.675
-38.932
-36.242
-33.633
-31.131
-28.76
-26.55
-24.53
-22.725
-21.151
-19.808
-18.707
-17.863
-17.309
-17.093
-17.242
-17.768
-18.681
-19.979
-21.653
-23.688
-26.035
-28.61
-31.344
-34.181
-37.083
-40.04
-43.006
-45.905
-48.655
-51.16
-53.359
-55.218
-56.69
-57.758
-58.456
-58.847
-59.053
-59.224
-59.477
-59.945
-60.785
-62.139
-64.169
-67.033
-70.925
-76.156
-82.865
-90.905
-99.871
-108.985
-117.397
-124.496
-129.524
-131.378
-129.433
-123.896
-115.87
-107.581
-101.293
-98.307
-99.825
-107.496
-122.06
-142.345
-164.994
-184.563
-195.274
-192.311
-170.71
-124.592
-49.051
55.109
181.303
321.715
469.49
625.562
794.171
967.836
1127.201
1241.93
1280.754
1233.25
1111.164
940.199
750.767
558.576
365.985
176.887
-5.343
-166.954
-289.367
-372.633
-421.025
-443.807
-455.792
-455.937
-442.6
-419.377
