Name,Aleksandre Beruashvili
Date of Birth,"Dec 20, 1998"
Recorded Date,2024-05-21 12:57:55 +0400
Classification,Sinus Rhythm
Symptoms,
Software Version,1.90
Device,"Watch7,2"
Sample Rate,512 hertz


Lead,Lead I
Unit,µV

-20.544
-32.469
-42.638
-50.542
-55.366
-56.634
-54.996
-51.506
-46.914
-41.932
-37.16
-33.026
-30.311
-29.509
-30.279
-31.886
-33.716
-35.362
-36.641
-37.456
-37.477
-36.45
-34.469
-31.85
-28.904
-25.799
-22.554
-19.112
-15.503
-11.799
-8.019
-4.134
-0.099
4.107
8.459
12.896
17.371
21.862
26.364
30.88
35.411
39.947
44.478
49.003
53.518
58.025
62.524
67.014
71.494
75.962
80.419
84.867
89.309
93.743
98.163
102.558
106.918
111.232
115.493
119.69
123.814
127.85
131.788
135.613
139.314
142.874
146.28
149.513
152.557
155.393
158.005
160.375
162.485
164.318
165.857
167.085
167.985
168.543
168.745
168.578
168.03
167.092
165.756
164.016
161.869
159.314
156.352
152.985
149.219
145.063
140.525
135.618
130.356
124.755
118.832
112.607
106.101
99.337
92.34
85.135
77.749
70.211
62.549
54.795
46.977
39.127
31.276
23.454
15.691
8.019
0.466
-6.94
-14.17
-21.2
-28.004
-34.559
-40.845
-46.841
-52.532
-57.902
-62.938
-67.631
-71.971
-75.955
-79.577
-82.838
-85.737
-88.279
-90.467
-92.311
-93.818
-94.999
-95.869
-96.441
-96.731
-96.758
-96.54
-96.095
-95.445
-94.61
-93.611
-92.471
-91.21
-89.851
-88.414
-86.922
-85.394
-83.853
-82.316
-80.801
-79.326
-77.907
-76.556
-75.287
-74.109
-73.029
-72.054
-71.188
-70.433
-69.791
-69.26
-68.836
-68.514
-68.288
-68.15
-68.09
-68.095
-68.151
-68.245
-68.361
-68.483
-68.596
-68.68
-68.719
-68.695
-68.592
-68.394
-68.085
-67.647
-67.064
-66.322
-65.409
-64.312
-63.021
-61.526
-59.821
-57.906
-55.785
-53.463
-50.946
-48.242
-45.363
-42.322
-39.136
-35.816
-32.372
-28.817
-25.168
-21.449
-17.685
-13.898
-10.111
-6.348
-2.64
0.987
4.505
7.9
11.165
14.285
17.235
19.983
22.484
24.705
26.629
28.235
29.501
30.422
30.997
31.257
31.265
31.062
30.679
30.143
29.459
28.668
27.834
26.997
26.212
25.523
24.94
24.495
24.212
24.027
23.863
23.635
23.178
22.397
21.233
19.524
17.168
14.127
10.246
5.386
-0.524
-7.604
-15.807
-24.769
-34.06
-43.366
-52.202
-59.7
-65.176
-68.201
-68.417
-67.844
-68.919
-71.289
-76.162
-81.337
-82.278
-82.437
-83.077
-88.364
-108.437
-140.128
-175.575
-202.138
-195.155
-141.379
-42.677
92.835
244.367
393.71
539.551
681.198
815.05
933.626
1013.783
1031.877
979.706
859.54
686.318
483.508
269.198
59.576
-126.407
-274.06
-374.648
-427.366
-444.793
-444.089
-435.654
-423.725
-405.851
-377.434
-340.35
-300.036
-262.21
-231.978
-210.803
-198.342
-193.852
-195.156
-199.705
-204.792
-207.964
-208.352
-205.747
-199.77
-190.497
-178.401
-164.369
-150.017
-136.921
-125.773
-116.854
-110.34
-106.125
-104.08
-103.956
-105.102
-106.74
-108.304
-109.45
-110.009
-109.96
-109.28
-107.905
-105.846
-103.183
-100.019
-96.437
-92.487
-88.177
-83.518
-78.573
-73.432
-68.204
-63.006
-57.902
-52.917
-48.067
-43.35
-38.765
-34.305
-29.934
-25.594
-21.239
-16.839
-12.367
-7.806
-3.126
1.717
6.764
12.048
17.59
23.405
29.503
35.896
42.584
49.563
56.82
64.336
72.094
80.081
88.278
96.664
105.215
113.902
122.694
131.561
140.467
149.372
158.235
167.012
175.659
184.132
192.387
200.376
208.056
215.382
222.309
228.798
234.805
240.293
245.223
249.562
253.278
256.342
258.73
260.419
261.39
261.632
261.133
259.888
257.896
255.159
251.684
247.483
242.571
236.966
230.693
223.777
216.249
208.143
199.497
190.351
180.746
170.728
160.343
149.638
138.662
127.465
116.095
104.602
93.035
81.443
69.873
58.373
46.988
35.762
24.736
13.949
3.44
-6.757
-16.612
-26.094
-35.179
-43.843
-52.067
-59.834
-67.132
-73.949
-80.279
-86.117
-91.462
-96.315
-100.679
-104.561
-107.969
-110.914
-113.406
-115.461
-117.092
-118.315
-119.149
-119.609
-119.715
-119.484
-118.936
-118.089
-116.962
-115.574
-113.942
-112.085
-110.019
-107.761
-105.324
-102.724
-99.972
-97.081
-94.06
-90.918
-87.664
-84.304
-80.844
-77.288
-73.642
-69.908
-66.087
-62.183
-58.195
-54.125
-49.972
-45.734
-41.41
-37
-32.504
-27.92
-23.248
-18.488
-13.642
-8.709
-3.693
1.405
6.583
11.837
17.163
22.555
28.008
33.515
39.067
44.655
50.266
55.89
61.512
67.119
72.698
78.234
83.711
89.114
94.427
99.635
104.721
109.666
114.448
119.046
123.436
127.6
131.515
135.159
138.512
141.558
144.287
146.692
148.763
150.492
151.872
152.896
153.56
153.863
153.801
153.374
152.588
151.452
149.981
148.198
146.117
143.749
141.097
138.152
134.909
131.38
127.571
123.492
119.171
114.639
109.948
105.175
100.381
95.63
90.984
86.486
82.198
78.179
74.484
71.201
68.406
66.119
64.352
63.092
62.294
61.938
61.948
62.164
62.439
62.608
62.525
62.084
61.075
59.231
56.358
52.299
47.068
40.957
34.303
27.54
21.357
16.464
13.433
12.706
14.168
16.969
19.846
21.105
18.555
11.394
0.989
-11.137
-22.644
-35.235
-56.193
-88.049
-127.332
-158.743
-154.962
-98.032
14.492
166.949
328.666
476.245
601.403
710.38
814.041
914.016
1000.067
1046.697
1029.687
936.61
764.412
534.345
279.715
33.476
-169.262
-314.133
-406.455
-460.093
-497.76
-531.422
-559.965
-577.425
-574.446
-549.891
-510.019
-462.335
-415.321
-373.369
-337.906
-310.917
-292.904
-283.023
-280.223
-282.453
-287.243
-293.215
-298.86
-301.871
-301.009
-295.945
-286.717
-274.275
-259.829
-244.106
-228.141
-213.39
-200.612
-190.167
-182.225
-176.39
-172.211
-169.319
-167.093
-164.872
-162.317
-159.252
-155.624
-151.545
-147.07
-142.251
-137.232
-132.147
-127.087
-122.115
-117.242
-112.492
-107.933
-103.664
-99.788
-96.374
-93.445
-91.005
-89.048
-87.56
-86.514
-85.857
-85.515
-85.428
-85.546
-85.822
-86.213
-86.659
-87.095
-87.459
-87.688
-87.723
-87.515
-87.019
-86.192
-85.003
-83.427
-81.441
-79.034
-76.191
-72.898
-69.148
-64.935
-60.258
-55.122
-49.536
-43.514
-37.074
-30.243
-23.05
-15.528
-7.716
0.348
8.618
17.047
25.586
34.182
42.782
51.33
59.767
68.033
76.072
83.823
91.228
98.23
104.773
110.801
116.262
121.106
125.288
128.761
131.487
133.426
134.547
134.819
134.218
132.723
130.317
126.99
122.733
117.545
111.431
104.396
96.454
87.622
77.92
67.376
56.019
43.884
31.007
17.43
3.2
-11.637
-27.027
-42.918
-59.253
-75.972
-93.015
-110.32
-127.823
-145.461
-163.168
-180.88
-198.531
-216.056
-233.391
-250.474
-267.241
-283.632
-299.589
-315.056
-329.977
-344.302
-357.983
-370.974
-383.232
-394.72
-405.403
-415.249
-424.231
-432.327
-439.516
-445.785
-451.123
-455.523
-458.983
-461.507
-463.1
-463.774
-463.544
-462.429
-460.452
-457.639
-454.022
-449.633
-444.51
-438.693
-432.224
-425.147
-417.51
-409.362
-400.753
-391.735
-382.359
-372.679
-362.746
-352.613
-342.332
-331.952
-321.524
-311.095
-300.712
-290.419
-280.258
-270.271
-260.494
-250.963
-241.71
-232.763
-224.149
-215.889
-208.003
-200.503
-193.403
-186.709
-180.428
-174.559
-169.101
-164.049
-159.394
-155.126
-151.23
-147.688
-144.481
-141.587
-138.983
-136.642
-134.539
-132.646
-130.934
-129.378
-127.949
-126.621
-125.367
-124.16
-122.975
-121.786
-120.57
-119.305
-117.968
-116.54
-115.005
-113.35
-111.566
-109.65
-107.599
-105.411
-103.088
-100.634
-98.054
-95.354
-92.535
-89.601
-86.557
-83.418
-80.196
-76.908
-73.569
-70.197
-66.815
-63.442
-60.097
-56.796
-53.548
-50.358
-47.242
-44.221
-41.32
-38.583
-36.041
-33.716
-31.63
-29.8
-28.228
-26.91
-25.817
-24.894
-24.102
-23.4
-22.754
-22.142
-21.523
-20.863
-20.128
-19.254
-18.191
-16.922
-15.429
-13.731
-11.877
-9.885
-7.825
-5.851
-4.108
-2.806
-2.136
-2.191
-3.127
-5.124
-8.301
-12.74
-18.291
-24.473
-30.781
-36.792
-42.017
-45.971
-48.202
-48.409
-47.046
-45.311
-44.551
-45.839
-50.119
-58.483
-71.848
-90.537
-111.957
-130.814
-142.475
-143.693
-135.589
-121.411
-99.055
-62.561
-2.897
88.37
209.337
350.908
501.486
648.96
785.121
901.3
985.188
1019.988
989.582
887.607
716.39
493.73
249.681
12.866
-184.961
-322.773
-401.54
-428.402
-421.664
-401.594
-370.475
-331.072
-286.929
-237.705
-194.473
-163.098
-138.702
-119.324
-99.283
-76.708
-58.031
-46.174
-42.431
-46.318
-53.686
-61.942
-69.511
-74.736
-77.292
-77.141
-74.275
-69.214
-62.462
-54.501
-46.258
-38.843
-32.886
-28.588
-25.819
-24.144
-23.217
-22.815
-22.566
-22.006
-20.853
-18.976
-16.381
-13.225
-9.609
-5.566
-1.155
3.558
8.506
13.611
18.808
24.046
29.278
34.472
39.602
44.649
49.61
54.494
59.322
64.131
68.953
73.807
78.702
83.643
88.644
93.725
98.907
104.214
109.66
115.257
121.013
126.938
133.033
139.294
145.708
152.255
158.917
165.68
172.529
179.446
186.412
193.404
200.398
207.371
214.294
221.139
227.872
234.459
240.866
247.059
253.005
258.67
264.021
269.024
273.647
277.859
281.631
284.935
287.744
290.033
291.781
292.969
293.579
293.6
293.021
291.834
290.037
287.63
284.617
281.005
276.805
272.03
266.698
260.828
254.443
247.569
240.234
232.469
224.307
215.783
206.933
197.798
188.415
178.827
169.073
159.197
149.24
139.244
129.249
119.296
109.425
99.675
90.081
80.681
71.505
62.588
53.956
45.637
37.655
30.031
22.782
15.926
9.474
3.437
-2.179
-7.368
-12.129
-16.462
-20.37
-23.858
-26.935
-29.609
-31.893
-33.801
-35.347
-36.55
-37.426
-37.997
-38.281
-38.302
-38.08
-37.637
-36.997
-36.183
-35.216
-34.119
-32.915
-31.625
-30.269
-28.868
-27.44
-26.003
-24.575
-23.169
-21.801
-20.483
-19.229
-18.048
-16.95
-15.942
-15.031
-14.224
-13.523
-12.931
-12.451
-12.082
-11.823
-11.673
-11.63
-11.689
-11.846
-12.096
-12.433
-12.852
-13.345
-13.907
-14.528
-15.203
-15.924
-16.685
-17.48
-18.3
-19.141
-19.995
-20.859
-21.725
-22.59
-23.445
-24.286
-25.109
-25.907
-26.678
-27.416
-28.119
-28.782
-29.402
-29.978
-30.506
-30.983
-31.407
-31.775
-32.084
-32.334
-32.522
-32.646
-32.704
-32.696
-32.622
-32.479
-32.268
-31.987
-31.632
-31.203
-30.699
-30.118
-29.458
-28.717
-27.896
-26.997
-26.026
-24.99
-23.892
-22.737
-21.533
-20.286
-19.004
-17.688
-16.34
-14.959
-13.55
-12.122
-10.684
-9.245
-7.809
-6.384
-4.98
-3.608
-2.277
-0.985
0.274
1.5
2.685
3.805
4.828
5.731
6.503
7.133
7.609
7.926
8.086
8.12
8.083
8.023
7.975
7.959
7.98
8.067
8.267
8.633
9.224
10.072
11.182
12.572
14.249
16.173
18.28
20.462
22.545
24.372
25.794
26.633
26.731
25.956
24.125
21.023
16.516
10.583
3.399
-4.621
-12.97
-21.207
-28.837
-35.201
-39.722
-42.105
-42.641
-42.358
-42.64
-44.578
-48.815
-56.27
-67.855
-83.62
-102.508
-120.821
-132.51
-133.923
-123.225
-100.177
-67.471
-22.317
40.571
124.292
233.185
363.484
506.138
654.709
798.178
924.357
1021.173
1068.44
1048.355
954.855
789.472
570.35
328.973
93.258
-108.357
-255.703
-349.195
-395.699
-409.05
-407.887
-396.077
-371.943
-337.259
-289.383
-234.555
-184.645
-140.797
-105.448
-79.44
-58.163
-43.868
-38.049
-38.895
-45.892
-56.04
-65.814
-73.078
-76.446
-75.633
-70.941
-63.1
-53.106
-41.754
-30.15
-19.703
-11.138
-4.785
-0.685
1.61
2.568
2.598
2.256
2.139
2.595
3.795
5.782
8.445
11.712
15.527
19.796
24.422
29.334
34.488
39.843
45.367
50.992
56.616
62.165
67.591
72.865
77.981
82.941
87.746
92.41
96.972
101.458
105.88
110.254
114.582
118.879
123.167
127.475
131.824
136.238
140.732
145.318
150.007
154.802
159.7
164.695
169.774
174.929
180.153
185.438
190.775
196.153
201.556
206.969
212.376
217.756
223.088
228.345
233.502
238.531
243.407
248.103
252.59
256.841
260.827
264.522
267.899
270.931
273.594
275.861
277.709
279.118
280.066
280.536
280.511
279.978
278.924
277.341
275.223
272.566
269.37
265.635
261.368
256.576
251.27
245.464
239.174
232.418
225.22
217.603
209.595
201.224
192.521
183.518
174.249
164.749
155.052
145.196
135.215
125.148
115.03
104.897
94.786
84.731
74.766
64.924
55.237
45.735
36.447
27.399
18.615
10.12
1.932
-5.928
-13.447
-20.609
-27.404
-33.823
-39.86
-45.511
-50.775
-55.652
-60.144
-64.257
-67.997
-71.372
-74.391
-77.066
-79.409
-81.434
-83.153
-84.583
-85.739
-86.637
-87.293
-87.723
-87.945
-87.974
-87.827
-87.521
-87.07
-86.491
-85.799
-85.006
-84.128
-83.176
-82.163
-81.099
-79.993
-78.855
-77.692
-76.512
-75.32
-74.121
-72.919
-71.718
-70.52
-69.327
-68.142
-66.965
-65.798
-64.641
-63.496
-62.362
-61.241
-60.134
-59.04
-57.961
-56.898
-55.852
-54.823
-53.813
-52.824
-51.858
-50.915
-49.998
-49.109
-48.25
-47.423
-46.63
-45.875
-45.159
-44.485
-43.856
-43.276
-42.747
-42.273
-41.856
-41.498
-41.201
-40.968
-40.798
-40.691
-40.646
-40.659
-40.73
-40.853
-41.024
-41.239
-41.49
-41.77
-42.073
-42.391
-42.714
-43.033
-43.337
-43.617
-43.861
-44.061
-44.204
-44.28
-44.279
-44.19
-44.006
-43.716
-43.312
-42.785
-42.125
-41.326
-40.383
-39.288
-38.036
-36.624
-35.05
-33.319
-31.436
-29.41
-27.247
-24.958
-22.557
-20.057
-17.472
-14.815
-12.092
-9.315
-6.499
-3.661
-0.82
2.007
4.805
7.556
10.238
12.834
15.328
17.711
19.983
22.135
24.149
26.003
27.664
29.104
30.307
31.257
31.942
32.358
32.516
32.442
32.19
31.806
31.321
30.775
30.187
29.595
29.048
28.594
28.286
28.181
28.313
28.69
29.305
30.101
31.006
31.949
32.793
33.388
33.593
33.238
32.208
30.426
27.749
23.961
18.906
12.535
4.995
-3.297
-11.885
-20.357
-28.158
-34.533
-38.786
-40.635
-40.368
-38.785
-37.087
-36.411
-37.913
-43.433
-53.281
-65.3
-76.985
-84.982
-89.708
-96.459
-105.752
-113.629
-107.227
-66.574
15.557
136.871
283.972
433.768
577.016
709.442
825.605
923.609
988.196
999.088
948.295
831.745
656.723
447.472
225.244
14.377
-158.116
-283.881
-362.169
-401.29
-422.14
-434.994
-442.387
-442.712
-427.237
-394.612
-350.146
-299.656
-250.563
-206.876
-169.27
-138.959
-116.765
-102.465
-95.426
-94.447
-98.018
-105.065
-114.546
-124.603
-133.235
-139.398
-142.774
-143.575
-142.378
-139.536
-135.41
-130.948
-127.309
-125.152
-124.712
-125.811
-127.956
-130.824
-134.196
-137.675
-140.801
-143.268
-144.904
-145.722
-145.889
-145.511
-144.639
-143.34
-141.674
-139.707
-137.507
-135.126
-132.601
-129.955
-127.195
-124.325
-121.345
-118.246
-115.013
-111.617
-108.011
-104.162
-100.05
-95.665
-91.008
-86.067
-80.826
-75.269
-69.385
-63.173
-56.633
-49.768
-42.581
-35.083
-27.293
-19.237
-10.946
-2.45
6.228
15.059
24.016
33.066
42.178
51.317
60.452
69.547
78.563
87.462
96.203
104.749
113.062
121.109
128.853
136.263
143.307
149.957
156.188
161.975
167.296
172.129
176.459
180.271
183.554
186.299
188.501
190.156
191.266
191.834
191.867
191.374
190.366
188.857
186.864
184.404
181.498
178.169
174.438
170.333
165.878
161.102
156.034
150.701
145.133
139.357
133.403
127.298
121.067
114.737
108.331
101.871
95.379
88.875
82.377
75.901
69.461
63.07
56.739
50.477
44.29
38.184
32.161
26.225
20.374
14.609
8.926
3.324
-2.203
-7.658
-13.049
-18.379
-23.655
-28.885
-34.074
-39.227
-44.352
-49.452
-54.533
-59.596
-64.645
-69.68
-74.702
-79.709
-84.697
-89.664
-94.604
-99.509
-104.372
-109.184
-113.932
-118.607
-123.193
-127.678
-132.046
-136.283
-140.371
-144.294
-148.037
-151.581
-154.912
-158.013
-160.868
-163.463
-165.783
-167.816
-169.549
-170.972
-172.077
-172.855
-173.302
-173.414
-173.19
-172.63
-171.737
-170.517
-168.978
-167.129
-164.982
-162.553
-159.858
-156.916
-153.749
-150.38
-146.834
-143.139
-139.322
-135.413
-131.444
-127.447
-123.455
-119.502
-115.622
-111.848
-108.214
-104.755
-101.504
-98.493
-95.754
-93.316
-91.21
-89.462
-88.098
-87.141
-86.613
-86.531
-86.913
-87.77
-89.114
-90.952
-93.288
-96.123
-99.455
-103.279
-107.587
-112.366
-117.603
-123.278
-129.37
-135.857
-142.71
-149.899
-157.392
-165.152
-173.144
-181.329
-189.666
-198.112
-206.623
-215.156
-223.663
-232.101
-240.422
-248.578
-256.524
-264.212
-271.599
-278.641
-285.296
-291.522
-297.279
-302.532
-307.249
-311.397
-314.951
-317.882
-320.17
-321.797
-322.749
-323.017
-322.593
-321.475
-319.667
-317.179
-314.027
-310.229
-305.806
-300.783
-295.191
-289.063
-282.433
-275.333
-267.8
-259.871
-251.59
-243.008
-234.176
-225.143
-215.959
-206.678
-197.354
-188.046
-178.803
-169.661
-160.664
-151.855
-143.294
-135.054
-127.194
-119.758
-112.787
-106.317
-100.378
-94.995
-90.163
-85.843
-82
-78.606
-75.646
-73.13
-71.038
-69.328
-67.939
-66.796
-65.855
-65.106
-64.525
-64.086
-63.805
-63.737
-64
-64.761
-66.144
-68.259
-71.212
-75.105
-80.061
-86.178
-93.573
-102.428
-112.868
-124.872
-138.237
-152.557
-167.3
-181.979
-195.997
-208.494
-218.691
-226.196
-231.348
-235.065
-238.358
-242.265
-247.727
-256.005
-268.842
-285.588
-302.284
-314.98
-319.192
-315.524
-311.312
-307.614
-301.031
-280.276
-223.987
-122.999
21.894
201.136
389.985
570.887
730.185
852.067
930.934
955.401
913.63
806.118
633.731
411.598
168.564
-68.698
-268.528
-409.474
-490.905
-520.77
-519.019
-506.567
-490.021
-469.791
-441.45
-399.144
-345.457
-286.993
-229.865
-180.049
-140.548
-111.725
-93.167
-83.518
-80.783
-82.862
-87.991
-94.537
-100.425
-103.742
-103.426
-99.135
-91.294
-80.814
-68.411
-54.764
-40.996
-28.329
-17.456
-8.625
-1.659
3.945
8.549
12.437
16.064
19.926
24.335
29.43
35.191
41.461
48.146
55.191
62.514
70.026
77.636
85.261
92.834
100.295
107.596
114.693
121.555
128.165
134.521
140.632
146.519
152.217
157.754
163.153
168.431
173.595
178.665
183.664
188.621
193.569
198.534
203.536
208.595
213.73
218.954
224.274
229.691
235.198
240.789
246.464
252.221
258.058
263.97
269.946
275.978
282.052
288.154
294.264
300.359
306.412
312.397
318.286
324.052
329.666
335.097
340.315
345.291
349.994
354.393
358.461
362.166
365.479
368.373
370.823
372.804
374.293
375.271
375.72
375.625
374.973
373.756
371.965
369.598
366.651
363.128
359.033
354.374
349.162
343.41
337.136
330.361
323.109
315.404
307.276
298.754
289.872
280.663
271.162
261.406
251.433
241.279
230.985
220.59
210.131
199.649
189.182
178.767
168.44
158.238
148.194
138.34
128.707
119.323
110.214
101.405
92.919
84.775
76.991
69.583
62.565
55.945
49.734
43.936
38.556
33.594
29.049
24.918
21.196
17.875
14.946
12.4
10.222
8.401
6.919
5.762
4.911
4.347
4.053
4.008
4.192
4.586
5.168
5.921
6.823
7.856
9.002
10.243
11.561
12.939
14.361
15.813
17.279
18.747
20.204
21.639
23.04
24.399
25.708
26.959
28.145
29.262
30.306
31.272
32.159
32.965
33.691
34.337
34.905
35.397
35.816
36.167
36.453
36.679
36.849
36.969
37.042
37.074
37.07
37.033
36.968
36.88
36.773
36.651
36.517
36.375
36.227
36.077
35.927
35.777
35.631
35.488
35.35
35.217
35.089
34.967
34.848
34.733
34.619
34.503
34.383
34.255
34.116
33.961
33.786
33.589
33.364
33.109
32.82
32.494
32.128
31.72
31.268
30.769
30.222
29.626
28.981
28.287
27.546
26.758
25.929
25.06
24.156
23.221
22.259
21.277
20.279
19.271
18.259
17.251
16.253
15.275
14.325
13.412
12.546
11.736
10.992
10.322
9.735
9.236
8.834
8.535
8.345
8.27
8.314
8.481
8.773
9.191
9.737
10.408
11.198
12.097
13.094
14.178
15.339
16.56
17.824
19.113
20.409
21.702
22.979
24.226
25.424
26.556
27.602
28.552
29.391
30.102
30.665
31.064
31.279
31.305
31.146
30.799
30.254
29.495
28.49
27.215
25.666
23.834
21.706
19.28
16.553
13.55
10.332
6.951
3.469
-0.073
-3.668
-7.309
-10.992
-14.692
-18.321
-21.786
-25.059
-28.137
-31.06
-33.849
-36.421
-38.814
-41.292
-44.266
-48.208
-53.354
-59.551
-66.654
-74.785
-83.973
-94.006
-104.091
-112.909
-119.617
-124.234
-127.04
-128.018
-127.048
-124.218
-120.822
-119.373
-121.894
-129.131
-141.253
-158.687
-181.717
-210.324
-241.391
-268.318
-286.935
-294.972
-292.479
-282.888
-261.82
-220.34
-153.43
-55.183
69.065
205.361
346.507
483.674
610.888
723.793
807.79
845.217
821.055
728.246
571.289
365.906
135.035
-98.778
-311.93
-484.764
-608.006
-679.476
-706.419
-702.479
-678.108
-642.353
-602.784
-563.073
-528.198
-499.431
-472.518
-444.628
-412.521
-377.224
-345.204
-320.123
-303.85
-295.797
-292.439
-292.223
-294.478
-297.96
-301.757
-304.432
-304.807
-302.806
-298.595
-292.229
-283.958
-274.268
-263.975
-254.2
-245.613
-238.254
-231.92
-226.334
-221.277
-216.586
-211.961
-206.943
-201.24
-194.794
-187.673
-180.053
-172.056
-163.72
-155.102
-146.312
-137.447
-128.602
-119.861
-111.24
-102.742
-94.381
-86.158
-78.074
-70.123
-62.272
-54.465
-46.663
-38.836
-30.962
-23.031
-15.02
-6.901
1.358
9.783
18.395
27.209
36.238
45.497
54.996
64.737
74.71
84.902
95.297
105.885
116.65
127.576
138.642
149.823
161.091
172.419
183.773
195.116
206.405
217.597
228.646
239.506
250.13
260.471
270.478
280.106
289.304
298.028
306.23
313.866
320.892
327.267
332.952
337.911
342.112
345.525
348.125
349.89
350.804
350.853
350.031
348.331
345.756
342.31
338.003
332.849
326.866
320.078
312.511
304.196
295.169
285.468
275.135
264.214
252.751
240.796
228.399
215.611
202.485
189.072
175.427
161.601
147.647
133.615
119.556
105.517
91.545
77.682
63.971
50.449
37.153
24.114
11.363
-1.074
-13.174
-24.917
-36.286
-47.267
-57.849
-68.024
-77.788
-87.138
-96.074
-104.599
-112.717
-120.435
-127.76
-134.702
-141.271
-147.479
-153.338
-158.859
-164.054
-168.937
-173.519
-177.811
-181.824
-185.568
-189.051
-192.28
-195.263
-198.002
-200.504
-202.769
-204.799
-206.593
-208.152
-209.471
-210.549
-211.381
-211.963
-212.289
-212.353
-212.15
-211.673
-210.916
-209.874
-208.54
-206.911
-204.982
-202.75
-200.212
-197.368
-194.217
-190.761
-187.004
-182.95
-178.607
-173.983
-169.088
-163.935
-158.538
-152.913
-147.077
-141.05
-134.851
-128.503
-122.029
-115.452
-108.798
-102.092
-95.36
-88.626
-81.919
-75.262
-68.681
-62.202
-55.848
-49.643
-43.61
-37.768
-32.14
-26.744
-21.597
-16.715
-12.112
-7.8
-3.789
-0.087
3.299
6.366
9.112
11.538
13.645
15.437
16.923
18.108
19.004
19.623
19.977
20.081
19.951
19.605
19.059
18.333
17.445
16.414
15.26
14.003
12.663
11.259
9.812
8.343
6.872
5.42
4.007
2.652
1.372
0.187
-0.888
-1.835
-2.64
-3.291
-3.772
-4.073
-4.182
-4.089
-3.785
-3.265
-2.522
-1.551
-0.35
1.084
2.749
4.644
6.767
9.116
11.687
14.475
17.472
20.67
24.062
27.636
31.38
35.277
39.307
43.448
47.681
51.984
56.335
60.709
65.083
69.435
73.75
78.011
82.194
86.278
90.234
94.04
97.673
101.112
104.331
107.309
110.026
112.469
114.638
116.523
118.11
119.377
120.287
120.819
120.964
120.717
120.08
119.064
117.689
116
114.07
111.953
109.694
107.327
104.868
102.352
99.827
97.334
94.927
92.648
90.52
88.552
86.729
84.986
83.234
81.357
79.211
76.677
73.631
69.942
65.498
60.186
53.931
46.646
38.192
28.504
17.642
5.895
-6.159
-17.839
-28.559
-37.7
-44.529
-48.557
-49.615
-48.126
-45.317
-42.595
-41.137
-42.006
-46.157
-54.041
-65.386
-78.704
-91.081
-99.075
-99.33
-88.349
-62.747
-19.704
42.858
123.536
217.253
318.589
421.233
522.843
625.576
725.355
814.113
875.934
888.05
841.815
738.951
592.768
425.285
245.001
58.386
-127.885
-304.711
-447.815
-540.391
-578.23
-568.552
-534.773
-493.66
-452.078
-411.779
-366.635
-315.602
-262.867
-212.568
-170.672
-140.114
-119.956
-108.516
-103.28
-101.746
-102.542
-104.388
-105.331
-103.611
-98.354
-89.472
-77.583
-63.667
-48.405
-32.366
-16.568
-2.147
10.217
20.279
28.204
34.485
39.576
43.782
47.516
51.249
55.244
59.637
64.447
69.525
74.728
79.979
85.176
90.223
95.074
99.666
103.943
107.863
111.35
114.351
116.851
118.841
120.332
121.35
121.924
122.107
121.978
121.604
121.042
120.341
119.544
118.706
117.893
117.168
116.594
116.224
116.107
116.292
116.826
117.741
119.065
120.815
123
125.634
128.725
132.28
136.299
140.777
145.703
151.061
156.831
162.986
169.49
176.301
183.375
190.662
198.11
205.662
213.258
220.835
228.328
235.673
242.801
249.644
256.132
262.198
267.773
272.794
277.198
280.923
283.912
286.112
287.474
287.954
287.513
286.116
283.737
280.352
275.947
270.511
264.043
256.548
248.034
238.522
228.034
216.604
204.27
191.074
177.067
162.304
146.844
130.753
114.098
96.951
79.387
61.482
43.314
24.965
6.513
-11.96
-30.375
-48.653
-66.718
-84.496
-101.913
-118.903
-135.401
-151.346
-166.681
-181.356
-195.324
-208.545
-220.983
-232.609
-243.399
-253.334
-262.405
-270.603
-277.929
-284.389
-289.993
-294.756
-298.699
-301.847
-304.23
-305.88
-306.833
-307.129
-306.81
-305.918
-304.5
-302.602
-300.27
-297.552
-294.494
-291.143
-287.544
-283.741
-279.777
-275.69
-271.52
-267.302
-263.067
-258.846
-254.666
-250.548
-246.514
-242.579
-238.757
-235.057
-231.487
-228.048
-224.742
-221.566
-218.514
-215.579
-212.751
-210.018
-207.366
-204.782
-202.248
-199.748
-197.266
-194.783
-192.283
-189.749
-187.164
-184.514
-181.785
-178.964
-176.038
-173
-169.84
-166.552
-163.133
-159.58
-155.894
-152.075
-148.128
-144.059
-139.876
-135.589
-131.21
-126.752
-122.23
-117.66
-113.062
-108.452
-103.853
-99.282
-94.762
-90.314
-85.959
-81.718
-77.611
-73.659
-69.881
-66.296
-62.921
-59.772
-56.863
-54.208
-51.816
-49.698
-47.862
-46.312
-45.052
-44.083
-43.404
-43.014
-42.909
-43.081
-43.522
-44.222
-45.169
-46.349
-47.746
-49.343
-51.122
-53.061
-55.14
-57.337
-59.629
-61.994
-64.408
-66.846
-69.284
-71.699
-74.066
-76.363
-78.565
-80.65
-82.596
-84.385
-85.997
-87.417
-88.627
-89.615
-90.369
-90.879
-91.139
-91.141
-90.882
-90.359
-89.577
-88.54
-87.255
-85.73
-83.981
-82.022
-79.877
-77.568
-75.114
-72.542
-69.878
-67.153
-64.403
-61.659
-58.948
-56.299
-53.744
-51.319
-49.059
-46.998
-45.157
-43.563
-42.246
-41.237
-40.572
-40.269
-40.331
-40.762
-41.564
-42.749
-44.347
-46.363
-48.788
-51.615
-54.829
-58.422
-62.39
-66.695
-71.269
-76.045
-80.951
-85.95
-91.035
-96.192
-101.42
-106.68
-111.895
-117.011
-121.969
-126.709
-131.241
-135.545
-139.562
-143.384
-147.172
-151.197
-155.924
-161.566
-168.048
-175.278
-183.054
-191.098
-199.26
-206.936
-213.01
-216.863
-218.186
-216.935
-213.638
-208.609
-201.718
-193.534
-185.273
-177.909
-172.622
-170.041
-169.658
-171.481
-176.172
-183.846
-194.07
-204.473
-210.283
-207.724
-195.346
-175.323
-151.796
-125.042
-90.218
-36.761
46.351
162.184
306.065
465.033
622.246
764.81
879.886
957.41
991.563
974.798
907.372
792.862
633.625
443.429
236.9
33.634
-137.504
-262.304
-336.438
-366.32
-373.775
-371.824
-364.392
-350.787
-323.063
-279.524
-225.448
-167.326
-112.281
-64.085
-23.805
8.206
32.293
48.76
58.683
63.899
65.488
64.314
61.674
58.57
56.195
55.903
57.94
61.922
67.734
75.126
83.631
92.913
102.275
110.73
117.957
124.063
129.17
133.562
137.458
140.921
144.22
147.782
151.797
156.296
161.221
166.382
171.677
177.091
182.548
187.94
193.171
198.132
202.773
207.113
211.164
214.937
218.452
221.711
224.73
227.57
230.302
232.985
235.669
238.375
241.097
243.867
246.764
249.804
252.941
256.139
259.357
262.609
266.016
269.627
273.346
277.275
281.799
287.011
292.795
299.198
305.818
313.364
324.211
337.902
352.201
363.544
365.133
357.154
346.417
339.639
346.379
367.473
393.746
418.08
432.869
436.535
435.842
434.993
436.761
442.046
448.032
453.364
458.103
462.101
465.728
469.062
471.69
473.458
474.399
474.476
473.645
471.897
469.231
465.666
461.256
456.014
449.906
442.925
435.08
426.38
416.841
406.479
395.307
383.347
370.634
357.199
343.079
328.312
312.938
296.999
280.543
263.617
246.271
228.557
210.527
192.237
173.74
155.093
136.349
117.565
98.795
80.094
61.513
43.107
24.925
7.018
-10.566
-27.781
-44.581
-60.924
-76.771
-92.081
-106.822
-120.96
-134.466
-147.314
-159.48
-170.943
-181.686
-191.695
-200.958
-209.468
-217.219
-224.209
-230.44
-235.915
-240.642
-244.631
-247.893
-250.443
-252.297
-253.475
-253.996
-253.883
-253.159
-251.85
-249.981
-247.582
-244.681
-241.307
-237.492
-233.267
-228.663
-223.712
-218.445
-212.894
-207.09
-201.062
-194.84
-188.455
-181.933
-175.301
-168.587
-161.815
-155.007
-148.187
-141.374
-134.589
-127.847
-121.167
-114.563
-108.05
-101.639
-95.344
-89.174
-83.141
-77.254
-71.519
-65.945
-60.539
-55.305
-50.249
-45.376
-40.69
-36.195
-31.894
-27.792
-23.89
-20.194
-16.707
-13.431
-10.372
-7.532
-4.918
-2.532
-0.382
1.529
3.193
4.605
5.758
6.645
7.259
7.594
7.643
7.399
6.857
6.012
4.86
3.396
1.618
-0.476
-2.887
-5.614
-8.656
-12.009
-15.668
-19.627
-23.88
-28.416
-33.224
-38.291
-43.604
-49.145
-54.897
-60.839
-66.949
-73.203
-79.576
-86.041
-92.572
-99.138
-105.71
-112.257
-118.748
-125.153
-131.438
-137.571
-143.522
-149.258
-154.751
-159.973
-164.895
-169.492
-173.741
-177.621
-181.115
-184.206
-186.882
-189.131
-190.948
-192.327
-193.271
-193.782
-193.867
-193.535
-192.801
-191.686
-190.217
-188.42
-186.325
-183.965
-181.376
-178.596
-175.667
-172.625
-169.506
-166.346
-163.189
-160.078
-157.059
-154.175
-151.468
-148.98
-146.755
-144.831
-143.245
-142.021
-141.175
-140.724
-140.69
-141.098
-141.983
-143.367
-145.258
-147.662
-150.575
-153.979
-157.85
-162.135
-166.756
-171.647
-176.748
-182.011
-187.405
-192.879
-198.376
-203.837
-209.185
-214.352
-219.282
-223.922
-228.247
-232.277
-236.053
-239.654
-243.191
-246.749
-250.424
-254.314
-258.48
-262.984
-267.839
-273.06
-278.752
-284.996
-291.771
-298.872
-305.845
-312.14
-317.287
-320.765
-321.885
-320.049
-314.918
-306.826
-296.829
-286.108
-275.968
-267.72
-262.56
-261.919
-265.45
-269.813
-271.32
-265.81
-251.88
-234.16
-214.942
-192.853
-162.381
-108.371
-18.672
110.303
276.345
462.148
645.184
805.032
919.217
976.424
971.348
900.848
771.277
586.845
359.329
112.903
-126.38
-324.072
-455.181
-517.517
-521.456
-492.405
-455.853
-420.599
-387.098
-349.577
-300.92
-242.908
-181.521
-122.514
-71.572
-31.345
-1.748
18.228
30.367
36.558
38.316
36.803
33.324
29.825
28.135
29.143
32.957
39.1
46.858
55.747
65.245
74.307
81.745
86.936
89.716
90.339
89.354
87.118
83.873
80.042
76.099
72.334
68.905
65.792
62.82
59.901
57.006
54.091
51.126
48.07
44.875
41.511
37.961
34.222
30.311
26.253
22.078
17.836
13.579
9.381
5.335
1.518
-2.007
-5.187
-7.978
-10.331
-12.185
-13.484
-14.176
-14.217
-13.572
-12.208
-10.095
-7.214
-3.557
0.874
6.066
12.009
18.691
26.094
34.197
42.974
52.39
62.41
72.995
84.098
95.668
107.649
119.983
132.607
145.462
158.485
171.611
184.777
197.917
210.97
223.874
236.566
248.986
261.077
272.782
284.047
294.822
305.059
314.715
323.747
332.12
339.801
346.761
352.976
358.426
363.093
366.965
370.035
372.297
373.751
374.4
374.25
373.312
371.6
369.129
365.92
361.992
357.37
352.078
346.143
339.591
332.45
324.749
316.517
307.785
298.581
288.936
278.881
268.445
257.658
246.55
235.149
223.484
211.584
199.476
187.187
174.744
162.174
149.502
136.756
123.96
111.141
98.324
85.534
72.796
60.136
47.578
35.147
22.87
10.771
-1.123
-12.787
-24.193
-35.316
-46.128
-56.602
-66.713
-76.434
-85.739
-94.603
-103.001
-110.909
-118.303
-125.163
-131.467
-137.195
-142.331
-146.859
-150.764
-154.036
-156.665
-158.643
-159.967
-160.634
-160.644
-160.001
-158.709
-156.778
-154.217
-151.041
-147.265
-142.908
-137.992
-132.54
-126.58
-120.139
-113.249
-105.943
-98.255
-90.221
-81.879
-73.269
-64.429
-55.401
-46.225
-36.944
-27.599
-18.231
-8.881
0.41
9.604
18.661
27.544
36.218
44.647
52.798
60.639
68.139
75.27
82.005
88.318
94.187
99.59
104.508
108.924
112.821
116.187
119.01
121.28
122.99
124.135
124.71
124.715
124.148
123.012
121.311
119.049
116.233
112.869
108.969
104.541
99.598
94.152
88.218
81.811
74.948
67.648
59.93
51.815
43.325
34.483
25.313
15.841
6.095
-3.898
-14.108
-24.506
-35.058
-45.732
-56.494
-67.309
-78.142
-88.959
-99.722
-110.395
-120.943
-131.33
-141.521
-151.478
-161.167
-170.55
-179.594
-188.265
-196.529
-204.354
-211.71
-218.568
-224.903
-230.69
-235.909
-240.539
-244.563
-247.967
-250.74
-252.874
-254.362
-255.203
-255.397
-254.949
-253.872
-252.183
-249.901
-247.046
-243.644
-239.723
-235.315
-230.451
-225.159
-219.466
-213.402
-207.004
-200.31
-193.361
-186.197
-178.854
-171.376
-163.807
-156.187
-148.555
-140.941
-133.366
-125.862
-118.464
-111.217
-104.174
-97.378
-90.862
-84.654
-78.782
-73.258
-68.085
-63.242
-58.68
-54.36
-50.254
-46.332
-42.577
-38.956
-35.419
-31.918
-28.397
-24.801
-21.094
-17.268
-13.327
-9.32
-5.317
-1.385
2.342
5.72
8.597
10.798
12.199
12.718
12.208
10.449
7.276
2.646
-3.21
-9.762
-16.472
-22.881
-28.438
-32.436
-34.197
-33.434
-30.712
-27.268
-24.371
-23.237
-25.056
-31.063
-42.42
-57.986
-73.643
-85.369
-90.211
-89.069
-85.537
-78.024
-58.407
-13.728
66.794
183.912
326.836
478.269
626.599
765.494
890.268
995.356
1063.086
1074.106
1021.895
909.583
755.997
583.192
398.564
207.839
14.823
-171.098
-324.605
-428.555
-477.068
-476.688
-450.836
-415.307
-376.259
-335.342
-286.245
-227.914
-165.436
-103.616
-48.625
-4.903
26.391
45.595
54.036
53.537
46.043
33.211
16.923
0.011
-14.854
-26.217
-33.485
-36.892
-37.193
-34.943
-30.873
-26.412
-23.067
-21.742
-22.766
-25.906
-30.656
-36.682
-43.694
-51.207
-58.649
-65.64
-72.022
-77.847
-83.303
-88.505
-93.493
-98.312
-103.038
-107.737
-112.465
-117.263
-122.109
-126.966
-131.813
-136.611
-141.325
-145.918
-150.327
-154.474
-158.292
-161.727
-164.736
-167.29
-169.357
-170.891
-171.85
-172.192
-171.884
-170.903
-169.23
-166.844
-163.734
-159.895
-155.336
-150.077
-144.136
-137.531
-130.283
-122.413
-113.953
-104.938
-95.405
-85.396
-74.957
-64.141
-53.004
-41.606
-30.01
-18.277
-6.47
5.347
17.11
28.756
40.222
51.445
62.365
72.924
83.062
92.725
101.86
110.42
118.36
125.639
132.219
138.067
143.157
147.465
150.973
153.668
155.54
156.587
156.81
156.218
154.822
152.639
149.693
146.01
141.622
136.566
130.882
124.612
117.804
110.506
102.77
94.649
86.199
77.474
68.53
59.426
50.217
40.96
31.709
22.519
13.441
4.525
-4.18
-12.63
-20.781
-28.595
-36.035
-43.067
-49.664
-55.798
-61.449
-66.599
-71.233
-75.342
-78.92
-81.964
-84.477
-86.464
-87.935
-88.901
-89.379
-89.387
-88.947
-88.084
-86.824
-85.195
-83.227
-80.951
-78.401
-75.609
-72.609
-69.434
-66.117
-62.693
-59.192
-55.647
-52.089
-48.545
-45.043
-41.61
-38.269
-35.043
-31.952
-29.014
-26.245
-23.658
-21.266
-19.078
-17.1
-15.339
-13.795
-12.47
-11.363
-10.469
-9.783
-9.298
-9.005
-8.894
-8.955
-9.174
-9.539
-10.036
-10.651
-11.37
-12.18
-13.066
-14.015
-15.015
-16.054
-17.121
-18.206
-19.301
-20.396
-21.486
-22.565
-23.626
-24.668
-25.686
-26.68
-27.649
-28.594
-29.516
-30.418
-31.304
-32.178
-33.044
-33.91
-34.78
-35.661
-36.561
-37.487
-38.447
-39.447
-40.496
-41.601
-42.768
-44.003
-45.312
-46.697
-48.16
-49.704
-51.326
-53.027
-54.803
-56.65
-58.564
-60.538
-62.564
-64.636
-66.743
-68.876
-71.021
-73.167
-75.298
-77.402
-79.462
-81.465
-83.393
-85.233
-86.97
-88.587
-90.071
-91.406
-92.576
-93.566
-94.364
-94.954
-95.323
-95.46
-95.355
-95
-94.39
-93.521
-92.392
-91.002
-89.354
-87.451
-85.298
-82.903
-80.275
-77.422
-74.356
-71.095
-67.656
-64.061
-60.334
-56.501
-52.588
-48.623
-44.635
-40.651
-36.693
-32.784
-28.945
-25.198
-21.567
-18.075
-14.747
-11.607
-8.679
-5.987
-3.552
-1.389
0.49
2.078
3.374
4.375
5.074
5.46
5.507
5.194
4.516
3.471
2.06
0.304
-1.776
-4.142
-6.728
-9.475
-12.318
-15.198
-18.076
-20.923
-23.703
-26.366
-28.829
-31.024
-32.929
-34.548
-35.898
-36.993
-37.825
-38.43
-38.936
-39.516
-40.356
-41.617
-43.368
-45.677
-48.69
-52.537
-57.309
-62.881
-68.783
-74.472
-79.522
-83.559
-86.159
-86.91
-85.475
-82.106
-77.884
-74.104
-71.849
-72.119
-75.981
-84.381
-97.799
-114.124
-128.749
-137.388
-136.962
-128.435
-114.832
-94.794
-62.997
-10.374
71.855
183.623
317.672
462.444
605.347
737.204
848.033
925.995
956.692
925.849
828.765
669.279
461.648
229.419
-3.398
-210.653
-369.66
-469.132
-508.966
-502.436
-470.503
-430.77
-392.108
-355.053
-315.027
-268.24
-216.991
-166.317
-121.708
-88.411
-67.432
-57.111
-55.586
-60.2
-68.378
-78.57
-88.832
-96.642
-100.765
-100.847
-96.927
-89.902
-80.849
-70.453
-59.74
-50.13
-42.346
-36.633
-33.009
-30.972
-29.979
-29.702
-29.664
-29.305
-28.347
-26.657
-24.187
-21.079
-17.441
-13.32
-8.819
-4.028
1.006
6.224
11.576
17.023
22.486
27.899
33.227
38.44
43.532
48.513
53.384
58.167
62.895
67.599
72.297
77.002
81.718
86.458
91.245
96.106
101.068
106.15
111.366
116.732
122.258
127.947
133.8
139.806
145.951
152.227
158.624
165.134
171.747
178.449
185.223
192.051
198.915
205.793
212.657
219.479
226.226
232.868
239.375
245.714
251.852
257.756
263.394
268.732
273.739
278.384
282.635
286.46
289.832
292.721
295.104
296.956
298.255
298.982
299.12
298.656
297.58
295.883
293.562
290.614
287.041
282.848
278.045
272.642
266.655
260.101
253.003
245.385
237.276
228.705
219.706
210.312
200.562
190.492
180.143
169.553
158.765
147.82
136.759
125.625
114.46
103.305
92.201
81.187
70.303
59.586
49.07
38.79
28.776
19.058
9.662
0.613
-8.067
-16.359
-24.247
-31.718
-38.76
-45.367
-51.532
-57.253
-62.532
-67.37
-71.772
-75.745
-79.299
-82.444
-85.192
-87.557
-89.554
-91.199
-92.51
-93.504
-94.2
-94.619
-94.778
-94.699
-94.4
-93.902
-93.225
-92.387
-91.407
-90.304
-89.095
-87.796
-86.424
-84.995
-83.521
-82.016
-80.491
-78.958
-77.427
-75.905
-74.402
-72.924
-71.477
-70.068
-68.701
-67.382
-66.114
-64.901
-63.748
-62.657
-61.632
-60.675
-59.79
-58.979
-58.245
-57.591
-57.019
-56.531
-56.13
-55.818
-55.596
-55.466
-55.429
-55.487
-55.641
-55.892
-56.242
-56.69
-57.239
-57.889
-58.64
-59.493
-60.446
-61.5
-62.654
-63.905
-65.252
-66.691
-68.219
-69.832
-71.526
-73.294
-75.131
-77.028
-78.979
-80.974
-83.005
-85.062
-87.136
-89.216
-91.295
-93.362
-95.407
-97.423
-99.399
-101.329
-103.201
-105.008
-106.741
-108.391
-109.949
-111.409
-112.762
-114.002
-115.123
-116.12
-116.987
-117.721
-118.317
-118.772
-119.083
-119.249
-119.268
-119.139
-118.863
-118.443
-117.882
-117.184
-116.356
-115.401
-114.326
-113.137
-111.839
-110.44
-108.945
-107.36
-105.691
-103.945
-102.133
-100.266
-98.357
-96.42
-94.467
-92.513
-90.571
-88.654
-86.772
-84.928
-83.128
-81.376
-79.681
-78.05
-76.491
-75.009
-73.612
-72.308
-71.102
-69.995
-68.988
-68.074
-67.24
-66.488
-65.819
-65.243
-64.79
-64.479
-64.315
-64.31
-64.464
-64.766
-65.202
-65.734
-66.298
-66.846
-67.325
-67.688
-67.916
-67.971
-67.813
-67.405
-66.673
-65.55
-64.039
-62.15
-59.909
-57.379
-54.586
-51.61
-48.647
-45.906
-43.602
-41.919
-40.937
-40.787
-41.706
-43.885
-47.411
-52.116
-57.506
-63.085
-68.492
-73.27
-76.814
-78.522
-78.034
-75.845
-73.089
-70.881
-70.362
-72.689
-79.14
-91.077
-107.467
-124.144
-137.171
-143.871
-145.677
-146.725
-145.371
-132.645
-94.419
-19.394
93.374
233.248
383.107
532.413
675.198
805.293
915.347
986.316
997.307
940.714
817.851
643.185
439.665
222.383
7.083
-189.003
-353.105
-469.733
-531.652
-542.982
-512.626
-456.818
-390.714
-327.487
-277.061
-240.683
-215.816
-194.582
-169.865
-141.92
-113.843
-91.553
-79.338
-76.396
-79.654
-85.358
-90.503
-93.072
-92.296
-88.248
-81.041
-71.297
-59.959
-47.652
-35.281
-24.149
-14.931
-7.919
-3.198
-0.351
1.11
1.572
1.544
1.584
2
2.935
4.456
6.472
8.91
11.718
14.802
18.067
21.46
24.951
28.512
32.121
35.72
39.22
42.569
45.742
48.733
51.555
54.226
56.765
59.209
61.617
64.038
66.506
69.053
71.701
74.483
77.445
80.626
84.066
87.796
91.843
96.227
100.967
106.071
111.54
117.369
123.547
130.062
136.907
144.067
151.528
159.27
167.269
175.498
183.93
192.531
201.262
210.084
218.953
227.826
236.657
245.4
254.009
262.434
270.629
278.545
286.137
293.358
300.161
306.504
312.343
317.641
322.362
326.471
329.938
332.737
334.844
336.242
336.916
336.855
336.052
334.506
332.218
329.196
325.449
320.992
315.844
310.027
303.569
296.499
288.851
280.663
271.973
262.823
253.259
243.326
233.071
222.544
211.793
200.869
189.822
178.701
167.557
156.437
145.389
134.458
123.689
113.123
102.799
92.755
83.025
73.639
64.628
56.015
47.823
40.071
32.776
25.949
19.602
13.74
8.367
3.483
-0.912
-4.825
-8.262
-11.234
-13.752
-15.832
-17.489
-18.741
-19.607
-20.11
-20.269
-20.108
-19.651
-18.92
-17.941
-16.737
-15.332
-13.75
-12.014
-10.146
-8.168
-6.101
-3.965
-1.777
0.445
2.684
4.926
7.157
9.363
11.535
13.661
15.733
17.743
19.683
21.55
23.338
25.045
26.667
28.203
29.653
31.017
32.296
33.49
34.603
35.635
36.592
37.474
38.287
39.034
39.719
40.345
40.915
41.432
41.9
42.32
42.694
43.025
43.313
43.561
43.768
43.935
44.063
44.151
44.2
44.208
44.175
44.099
43.981
43.817
43.608
43.354
43.052
42.702
42.303
41.855
41.355
40.802
40.196
39.533
38.812
38.033
37.193
36.293
35.334
34.315
33.238
32.106
30.921
29.685
28.403
27.076
25.708
24.304
22.87
21.411
19.932
18.439
16.939
15.44
13.948
12.469
11.011
9.576
8.172
6.803
5.474
4.189
2.952
1.77
0.645
-0.415
-1.407
-2.324
-3.164
-3.925
-4.609
-5.22
-5.766
-6.257
-6.702
-7.114
-7.498
-7.861
-8.205
-8.531
-8.839
-9.129
-9.403
-9.665
-9.927
-10.199
-10.489
-10.798
-11.117
-11.434
-11.734
-12.002
-12.225
-12.397
-12.526
-12.644
-12.787
-12.986
-13.276
-13.668
-14.155
-14.73
-15.377
-16.078
-16.832
-17.635
-18.472
-19.336
-20.21
-21.066
-21.864
-22.505
-22.854
-22.894
-22.707
-22.47
-22.454
-22.888
-23.92
-25.705
-28.408
-31.847
-35.521
-38.808
-40.936
-41.329
-39.749
-36.062
-30.169
-22.562
-14.31
-6.486
-0.211
3.74
4.939
2.66
-3.928
-14.935
-29.931
-48.555
-70.566
-96.165
-123.874
-149.459
-168.993
-180.141
-184.796
-187.327
-186.898
-175.483
-139.51
-68.123
40.113
175.718
322.074
468.62
609.145
737.372
847.918
925.083
949.119
911.336
808.874
649.882
456.748
248.61
46.118
-128.173
-265.963
-364.281
-427.38
-469.67
-497.703
-512.523
-511.869
-488.664
-443.071
-381.151
-309.962
-238.18
-171.131
-111.187
-61.295
-23.445
2.098
15.921
19.836
16.469
7.86
-3.978
-16.141
-25.97
-32.083
-34.06
-32.461
-28.475
-22.985
-16.886
-11.602
-8.493
-8.267
-11.036
-16.384
-23.654
-32.371
-42.15
-52.443
-62.663
-72.39
-81.395
-89.599
-97.001
-103.573
-109.258
-114.079
-118.152
-121.634
-124.719
-127.571
-130.278
-132.891
-135.436
-137.91
-140.296
-142.567
-144.67
-146.568
-148.268
-149.775
-151.096
-152.22
-153.096
-153.639
-153.741
-153.298
-152.218
-150.432
-147.891
-144.562
-140.427
-135.49
-129.775
-123.305
-116.092
-108.144
-99.469
-90.084
-80.019
-69.316
-58.023
-46.195
-33.894
-21.185
-8.14
5.174
18.689
32.338
46.06
59.786
73.448
86.972
100.284
113.309
125.969
138.188
149.89
161.001
171.451
181.174
190.111
198.203
205.397
211.646
216.906
221.142
224.323
226.423
227.422
227.309
226.078
223.731
220.277
215.73
210.113
203.456
195.795
187.172
177.635
167.235
156.032
144.086
131.465
118.238
104.479
90.263
75.672
60.784
45.684
30.453
15.175
-0.068
-15.197
-30.131
-44.796
-59.116
-73.022
-86.446
-99.327
-111.606
-123.231
-134.153
-144.331
-153.728
-162.315
-170.068
-176.969
-183.006
-188.175
-192.476
-195.915
-198.506
-200.264
-201.215
-201.385
-200.807
-199.519
-197.561
-194.977
-191.815
-188.124
-183.957
-179.368
-174.411
-169.143
-163.62
-157.899
-152.034
-146.082
-140.094
-134.122
-128.215
-122.418
-116.773
-111.321
-106.095
-101.128
-96.447
-92.076
-88.032
-84.332
-80.984
-77.996
-75.369
-73.101
-71.186
-69.615
-68.374
-67.448
-66.818
-66.464
-66.362
-66.487
-66.813
-67.312
-67.955
-68.712
-69.553
-70.449
-71.37
-72.288
-73.175
-74.005
-74.756
-75.405
-75.934
-76.327
-76.57
-76.653
-76.569
-76.313
-75.885
-75.288
-74.527
-73.611
-72.554
-71.369
-70.075
-68.69
-67.237
-65.738
-64.219
-62.704
-61.219
-59.791
-58.448
-57.216
-56.122
-55.194
-54.457
-53.935
-53.653
-53.63
-53.887
-54.44
-55.304
-56.487
-57.999
-59.843
-62.022
-64.534
-67.373
-70.531
-73.995
-77.749
-81.775
-86.05
-90.546
-95.236
-100.089
-105.072
-110.15
-115.289
-120.452
-125.601
-130.703
-135.719
-140.616
-145.356
-149.905
-154.23
-158.299
-162.084
-165.558
-168.696
-171.476
-173.88
-175.898
-177.523
-178.751
-179.579
-180.009
-180.047
-179.708
-179.006
-177.955
-176.569
-174.866
-172.872
-170.619
-168.139
-165.464
-162.623
-159.649
-156.581
-153.459
-150.319
-147.194
-144.103
-141.066
-138.111
-135.276
-132.609
-130.148
-127.919
-125.939
-124.233
-122.817
-121.703
-120.883
-120.317
-119.966
-119.802
-119.792
-119.936
-120.23
-120.657
-121.207
-121.83
-122.447
-123.017
-123.52
-123.948
-124.369
-124.802
-125.183
-125.661
-126.496
-127.934
-130.318
-133.726
-137.884
-142.775
-148.652
-155.441
-162.869
-170.408
-176.948
-181.971
-185.773
-188.182
-188.664
-187.03
-183.226
-178.003
-173.52
-171.18
-171.134
-174.276
-181.752
-193.973
-211.481
-232.17
-250.059
-261.861
-266.344
-262.654
-253.153
-233.941
-194.595
-128.314
-30.645
94.034
230.819
368.579
501.845
627.45
742.91
838.113
892.926
887.953
815.08
676.775
486.26
264.998
31.399
-195.105
-390.179
-536.802
-626.823
-662.006
-659.929
-640.581
-614.242
-585.176
-550.613
-504.766
-449.098
-389.164
-330.468
-279.341
-239.405
-210.595
-191.756
-181.114
-176.399
-175.553
-177.137
-179.234
-179.31
-176.03
-169.055
-158.548
-145.612
-131.582
-117.339
-104.081
-93.385
-86.055
-82.352
-82.218
-84.948
-89.697
-95.811
-102.522
-109.032
-114.905
-119.858
-123.667
-126.281
-127.588
-127.458
-125.878
-122.866
-118.414
-112.542
-105.32
-96.869
-87.443
-77.328
-66.722
-55.757
-44.506
-33.015
-21.352
-9.594
2.211
14.04
25.871
37.678
49.421
61.064
72.611
84.107
95.631
107.274
119.088
131.095
143.298
155.684
168.234
180.922
193.701
206.51
219.297
232.019
244.638
257.123
269.427
281.494
293.265
304.676
315.668
326.185
336.174
345.586
354.375
362.499
369.927
376.631
382.582
387.749
392.103
395.616
398.262
400.021
400.874
400.804
399.802
397.861
394.983
391.171
386.436
380.791
374.254
366.846
358.594
349.527
339.679
329.086
317.788
305.829
293.254
280.113
266.457
252.339
237.815
222.941
207.775
192.376
176.801
161.11
145.363
129.618
113.935
98.373
82.988
67.835
52.971
38.446
24.311
10.611
-2.609
-15.309
-27.452
-39.005
-49.937
-60.223
-69.84
-78.769
-86.996
-94.509
-101.299
-107.364
-112.7
-117.31
-121.199
-124.374
-126.846
-128.626
-129.731
-130.178
-129.987
-129.18
-127.781
-125.815
-123.308
-120.289
-116.786
-112.828
-108.444
-103.666
-98.523
-93.044
-87.26
-81.2
-74.892
-68.364
-61.643
-54.753
-47.718
-40.561
-33.304
-25.966
-18.566
-11.122
-3.65
3.832
11.31
18.77
26.197
33.579
40.902
48.156
55.329
62.409
69.386
76.249
82.986
89.587
96.04
102.333
108.453
114.388
120.125
125.65
130.95
136.011
140.816
145.351
149.598
153.541
157.162
160.442
163.363
165.905
168.051
169.78
171.076
171.921
172.298
172.191
171.585
170.468
168.828
166.653
163.937
160.673
156.857
152.49
147.572
142.107
136.105
129.574
122.529
114.985
106.962
98.481
89.569
80.254
70.566
60.541
50.214
39.626
28.817
17.832
6.717
-4.48
-15.712
-26.927
-38.076
-49.106
-59.964
-70.598
-80.958
-90.993
-100.653
-109.89
-118.658
-126.916
-134.623
-141.741
-148.238
-154.082
-159.246
-163.709
-167.451
-170.459
-172.722
-174.236
-175
-175.02
-174.307
-172.876
-170.747
-167.942
-164.491
-160.426
-155.786
-150.61
-144.94
-138.826
-132.318
-125.477
-118.363
-111.039
-103.57
-96.022
-88.462
-80.96
-73.58
-66.381
-59.42
-52.751
-46.432
-40.519
-35.065
-30.115
-25.717
-21.912
-18.741
-16.238
-14.427
-13.323
-12.929
-13.253
-14.301
-16.085
-18.622
-21.918
-25.966
-30.757
-36.27
-42.475
-49.328
-56.761
-64.686
-73.025
-81.692
-90.609
-99.707
-108.897
-118.106
-127.254
-136.235
-144.955
-153.339
-161.338
-168.929
-176.13
-182.938
-189.371
-195.504
-201.427
-207.275
-213.195
-219.305
-225.708
-232.5
-239.842
-247.857
-256.546
-265.685
-274.76
-283.139
-290.233
-295.538
-298.504
-298.726
-296.143
-291.259
-285.375
-280.1
-276.995
-277.307
-281.744
-290.779
-304.257
-320.27
-335.819
-346.145
-344.402
-326.59
-290.801
-236.932
-170.813
-95.165
-7.64
93.311
214.729
358.574
513.146
663.117
784.913
855.659
865.698
811.281
698.561
538.151
340.002
121.446
-97.847
-292.546
-437.028
-523.054
-554.173
-545.937
-522.388
-493.123
-459.026
-421.334
-374.669
-322.535
-275.183
-233.165
-198.941
-173.263
-151.211
-134.596
-124.789
-120.297
-121.168
-125.078
-129.033
-131.27
-130.645
-126.981
-120.605
-112.144
-102.379
-91.891
-81.574
-72.662
-65.783
-61.209
-58.988
-58.709
-59.939
-62.296
-65.248
-68.207
-70.832
-72.952
-74.482
-75.491
-76.022
-76.101
-75.806
-75.218
-74.379
-73.302
-71.996
-70.466
-68.751
-66.924
-65.023
-63.06
-61.03
-58.904
-56.654
-54.254
-51.655
-48.791
-45.608
-42.067
-38.134
-33.788
-28.996
-23.719
-17.922
-11.574
-4.652
2.857
10.964
19.672
28.973
38.851
49.283
60.238
71.687
83.598
95.939
108.67
121.752
135.136
148.775
162.618
176.61
190.69
204.797
218.868
232.838
246.644
260.222
273.507
286.434
298.94
310.964
322.446
333.329
343.555
353.072
361.83
369.785
376.897
383.127
388.445
392.822
396.238
398.676
400.126
400.581
400.04
398.509
395.997
392.519
388.096
382.752
376.516
369.423
361.51
352.82
343.399
333.296
322.563
311.254
299.429
287.145
274.464
261.447
248.157
234.658
221.014
207.287
193.541
179.836
166.233
152.79
139.562
126.603
113.964
101.691
89.829
78.418
67.495
57.095
47.245
37.973
29.3
21.244
13.82
7.038
0.906
-4.574
-9.402
-13.58
-17.117
-20.02
-22.304
-23.985
-25.079
-25.609
-25.597
-25.069
-24.052
-22.575
-20.669
-18.364
-15.694
-12.691
-9.39
-5.822
-2.022
1.979
6.146
10.45
14.86
19.346
23.881
28.439
32.994
37.523
42.004
46.418
50.747
54.974
59.085
63.067
66.908
70.599
74.132
77.501
80.7
83.727
86.58
89.257
91.761
94.094
96.258
98.259
100.101
101.79
103.334
104.738
106.01
107.158
108.188
109.109
109.928
110.652
111.288
111.842
112.319
112.724
113.061
113.334
113.546
113.697
113.788
113.821
113.794
113.707
113.56
113.348
113.071
112.726
112.309
111.817
111.246
110.592
109.85
109.017
108.089
107.061
105.931
104.696
103.352
101.898
100.333
98.655
96.863
94.958
92.941
90.815
88.581
86.246
83.814
81.292
78.689
76.013
73.277
70.491
67.667
64.819
61.958
59.102
56.264
53.46
50.707
48.019
45.415
42.911
40.525
38.273
36.171
34.233
32.476
30.914
29.561
28.429
27.528
26.867
26.458
26.308
26.423
26.808
27.462
28.389
29.585
31.048
32.769
34.737
36.936
39.352
41.97
44.772
47.737
50.843
54.069
57.399
60.815
64.296
67.817
71.35
74.866
78.342
81.751
85.067
88.26
91.305
94.183
96.886
99.404
101.72
103.809
105.634
107.169
108.406
109.332
109.943
110.247
110.256
110.009
109.576
109.009
108.352
107.63
106.85
106.04
105.246
104.515
103.901
103.435
103.13
103.021
103.128
103.4
103.759
104.06
104.124
103.861
103.193
102.011
100.238
97.77
94.506
90.445
85.529
79.586
72.57
64.54
55.737
46.792
38.369
30.984
25.351
22.291
22.26
25.329
31.024
38.082
45.027
50.607
53.377
51.506
45.249
37.233
29.902
26.851
28
28.353
28.425
32.892
52.144
102.761
191.133
313.358
459.379
612.29
760.263
896.188
1008.491
1084.71
1111.986
1077.972
983.47
837.64
649.808
436.114
211.267
-8.167
-196.57
-336.361
-418.878
-445.541
-433.269
-397.832
-351.598
-305.892
-263.953
-228.958
-202.568
-180.361
-160.544
-141.941
-125.155
-114.948
-113.32
-120.173
-133.337
-148.638
-163.279
-174.974
-182.532
-186.158
-185.99
-182.586
-177.01
-169.987
-162.48
-155.868
-150.855
-147.73
-146.601
-147.086
-148.741
-151.217
-153.993
-156.48
-158.358
-159.471
-159.779
-159.4
-158.405
-156.843
-154.825
-152.463
-149.841
-147.012
-144.015
-140.879
-137.67
-134.489
-131.411
-128.481
-125.72
-123.128
-120.694
-118.408
-116.244
-114.15
-112.079
-109.992
-107.853
-105.635
-103.301
-100.801
-98.084
-95.097
-91.794
-88.134
-84.079
-79.595
-74.653
-69.234
-63.322
-56.911
-49.992
-42.557
-34.599
-26.119
-17.118
-7.608
2.398
12.885
23.827
35.195
46.953
59.059
71.47
84.139
97.015
110.041
123.161
136.313
149.434
162.459
175.322
187.954
200.286
212.249
223.775
234.796
245.247
255.064
264.185
272.552
280.109
286.806
292.596
297.435
301.285
304.113
305.891
306.597
306.213
304.728
302.138
298.442
293.65
287.774
280.834
272.853
263.863
253.898
242.999
231.209
218.579
205.16
191.009
176.186
160.753
144.775
128.32
111.456
94.251
76.777
59.102
41.297
23.43
5.568
-12.221
-29.873
-47.326
-64.518
-81.394
-97.898
-113.979
-129.589
-144.684
-159.223
-173.172
-186.497
-199.171
-211.17
-222.472
-233.063
-242.93
-252.064
-260.46
-268.119
-275.041
-281.234
-286.705
-291.468
-295.535
-298.925
-301.655
-303.747
-305.222
-306.105
-306.419
-306.192
-305.449
-304.218
-302.526
-300.402
-297.872
-294.965
-291.708
-288.126
-284.246
-280.093
-275.689
-271.057
-266.219
-261.196
-256.005
-250.665
-245.193
-239.602
-233.908
-228.122
-222.256
-216.318
-210.318
-204.262
-198.158
-192.011
-185.825
-179.605
-173.354
-167.075
-160.771
-154.445
-148.096
-141.728
-135.341
-128.937
-122.515
-116.078
-109.627
-103.163
-96.688
-90.204
-83.714
-77.222
-70.731
-64.246
-57.772
-51.314
-44.879
-38.475
-32.109
-25.791
-19.53
-13.338
-7.226
-1.205
4.71
10.505
16.168
21.682
27.034
32.208
37.187
41.957
46.499
50.799
54.84
58.605
62.077
65.241
68.079
70.577
72.72
74.494
75.886
76.882
77.473
77.648
77.401
76.723
75.61
74.058
72.063
69.628
66.754
63.445
59.706
55.547
50.978
46.012
40.665
34.953
28.894
22.508
15.819
8.852
1.632
-5.815
-13.459
-21.273
-29.224
-37.279
-45.405
-53.569
-61.739
-69.883
-77.967
-85.958
-93.829
-101.553
-109.108
-116.469
-123.611
-130.511
-137.149
-143.507
-149.568
-155.314
-160.729
-165.799
-170.518
-174.883
-178.894
-182.548
-185.847
-188.79
-191.381
-193.628
-195.531
-197.091
-198.317
-199.217
-199.81
-200.13
-200.197
-200.026
-199.634
-199.033
-198.225
-197.214
-195.983
-194.498
-192.741
-190.702
-188.384
-185.799
-182.931
-179.762
-176.284
-172.5
-168.447
-164.158
-159.614
-154.811
-149.803
-144.696
-139.678
-134.906
-130.417
-126.308
-122.819
-120.323
-119.224
-119.701
-121.656
-124.975
-129.711
-135.778
-142.676
-149.331
-154.392
-156.977
-156.839
-153.977
-148.216
-139.591
-129.06
-118.564
-110.478
-106.778
-108.464
-115.92
-129.722
-148.578
-168.37
-184.784
-194.05
-196.159
-194.284
-187.422
-168.355
-124.893
-46.813
66.979
206.676
356.345
503.915
641.17
763.155
863.128
927.763
945.124
906.226
811.57
670.229
490.191
284.252
65.832
-149.561
-337.21
-478.479
-565.692
-601.293
-602.379
-587.249
-565.04
-539.25
-507.241
-464.85
-414.677
-362.46
-313.969
-275.152
-248.076
-231.546
-223.844
-222.594
-225.043
-229.063
-232.756
-233.825
-231.023
-224.165
-213.333
-199.334
-183.459
-166.82
-150.679
-136.546
-125.23
-117.06
-112.258
-110.506
-111.294
-114.057
-117.905
-121.993
-125.856
-129.231
-132.017
-134.227
-135.799
-136.702
-137.027
-136.828
-136.112
-134.799
-132.691
-129.699
-125.858
-121.299
-116.26
-110.892
-105.253
-99.397
-93.363
-87.171
-80.842
-74.331
-67.528
-60.375
-52.851
-44.965
-36.785
-28.317
-19.518
-10.33
-0.662
9.556
20.356
31.782
43.878
56.66
70.131
84.262
98.988
114.261
130.047
146.314
163.034
180.169
197.662
215.454
233.48
251.668
269.946
288.231
306.433
324.468
342.255
359.717
376.783
393.378
409.425
424.851
439.582
453.546
466.672
478.893
490.14
500.352
509.473
517.455
524.252
529.827
534.148
537.189
538.934
539.37
538.492
536.3
532.804
528.017
521.962
514.667
506.164
496.494
485.704
473.846
460.976
447.157
432.452
416.93
400.664
383.725
366.191
348.137
329.641
310.782
291.639
272.289
252.812
233.284
213.779
194.369
175.122
156.105
137.38
119.005
101.033
83.514
66.493
50.011
34.104
18.804
4.137
-9.875
-23.215
-35.87
-47.832
-59.096
-69.664
-79.538
-88.725
-97.235
-105.08
-112.276
-118.84
-124.792
-130.152
-134.942
-139.187
-142.91
-146.136
-148.89
-151.196
-153.08
-154.565
-155.675
-156.43
-156.854
-156.966
-156.784
-156.326
-155.608
-154.645
-153.45
-152.035
-150.409
-148.583
-146.564
-144.359
-141.975
-139.416
-136.689
-133.798
-130.747
-127.542
-124.187
-120.687
-117.048
-113.277
-109.379
-105.364
-101.241
-97.018
-92.708
-88.323
-83.876
-79.383
-74.858
-70.319
-65.785
-61.273
-56.806
-52.402
-48.084
-43.875
-39.797
-35.873
-32.127
-28.581
-25.258
-22.18
-19.37
-16.848
-14.633
-12.743
-11.195
-10.005
-9.185
-8.747
-8.699
-9.049
-9.8
-10.955
-12.512
-14.47
-16.821
-19.559
-22.674
-26.152
-29.979
-34.14
-38.614
-43.382
-48.422
-53.71
-59.221
-64.929
-70.808
-76.829
-82.964
-89.186
-95.466
-101.775
-108.084
-114.368
-120.597
-126.746
-132.79
-138.705
-144.466
-150.054
-155.45
-160.636
-165.597
-170.319
-174.791
-179.004
-182.95
-186.623
-190.02
-193.136
-195.971
-198.525
-200.801
-202.803
-204.535
-206.004
-207.216
-208.18
-208.906
-209.401
-209.676
-209.741
-209.605
-209.281
-208.78
-208.111
-207.287
-206.319
-205.217
-203.995
-202.663
-201.234
-199.715
-198.117
-196.45
-194.722
-192.944
-191.122
-189.262
-187.371
-185.462
-183.547
-181.642
-179.76
-177.912
-176.112
-174.372
-172.705
-171.118
-169.612
-168.188
-166.848
-165.6
-164.452
-163.415
-162.497
-161.707
-161.048
-160.518
-160.113
-159.824
-159.638
-159.548
-159.553
-159.662
-159.903
-160.303
-160.878
-161.642
-162.604
-163.745
-165.034
-166.431
-167.879
-169.361
-170.878
-172.405
-173.901
-175.292
-176.504
-177.491
-178.223
-178.622
-178.559
-177.994
-177.048
-176.028
-175.284
-174.981
-175.051
-175.387
-176.109
-177.257
-178.559
-179.47
-179.389
-178.176
-176.413
-174.841
-173.558
-172.652
-172.647
-173.985
-177.003
-181.721
-186.889
-192.309
-200.221
-210.483
-221.616
-230.83
-232.053
-226.596
-220.684
-218.364
-226.149
-241.452
-256.661
-270.698
-276.292
-267.914
-239.163
-174.186
-69.707
69.158
230.062
389.974
537.537
668.969
782.091
876.258
940.51
957.521
912.438
798.056
616.47
383.515
127.366
-121.5
-328.981
-472.107
-550.626
-575.255
-567.413
-545.476
-511.381
-464.272
-404.054
-336.458
-277.036
-237.406
-219.953
-218.549
-222.618
-225.142
-225.589
-228.065
-235.093
-246.025
-257.758
-265.564
-267.324
-263.285
-254.177
-241.636
-227.165
-211.765
-196.866
-183.653
-172.472
-163.443
-156.397
-150.835
-146.352
-142.442
-138.341
-133.553
-127.868
-121.171
-113.543
-105.075
-95.75
-85.637
-74.872
-63.533
-51.698
-39.42
-26.695
-13.58
-0.173
13.419
27.061
40.661
54.168
67.536
80.733
93.737
106.523
119.088
131.453
143.626
155.609
167.405
179.007
190.423
201.674
212.779
223.759
234.629
245.396
256.063
266.638
277.118
287.503
297.782
307.945
317.981
327.885
337.649
347.265
356.722
366.007
375.107
384.007
392.691
401.14
409.331
417.243
424.852
432.133
439.064
445.618
451.769
457.49
462.757
467.542
471.821
475.568
478.757
481.368
483.376
484.763
485.511
485.602
485.024
483.765
481.816
479.174
475.834
471.796
467.064
461.642
455.539
448.766
441.338
433.27
424.583
415.299
405.443
395.043
384.128
372.732
360.887
348.629
335.997
323.026
309.759
296.233
282.49
268.571
254.517
240.37
226.171
211.959
197.774
183.655
169.639
155.761
142.055
128.555
115.29
102.289
89.579
77.185
65.129
53.434
42.116
31.194
20.683
10.595
0.941
-8.269
-17.029
-25.332
-33.174
-40.554
-47.47
-53.923
-59.914
-65.447
-70.526
-75.155
-79.341
-83.092
-86.414
-89.316
-91.808
-93.898
-95.597
-96.915
-97.862
-98.448
-98.684
-98.58
-98.148
-97.396
-96.337
-94.979
-93.334
-91.413
-89.225
-86.781
-84.093
-81.169
-78.023
-74.663
-71.101
-67.349
-63.418
-59.319
-55.065
-50.668
-46.14
-41.494
-36.743
-31.901
-26.98
-21.994
-16.956
-11.88
-6.78
-1.668
3.44
8.531
13.592
18.608
23.565
28.451
33.25
37.951
42.54
47.004
51.331
55.509
59.527
63.374
67.039
70.513
73.787
76.853
79.704
82.333
84.736
86.908
88.847
90.551
92.018
93.25
94.246
95.01
95.544
95.851
95.936
95.805
95.463
94.919
94.179
93.252
92.148
90.875
89.444
87.867
86.152
84.313
82.361
80.308
78.166
75.95
73.672
71.345
68.984
66.601
64.211
61.827
59.463
57.13
54.841
52.608
50.443
48.357
46.362
44.467
42.683
41.022
39.493
38.105
36.868
35.788
34.876
34.137
33.58
33.211
33.037
33.061
33.292
33.734
34.392
35.27
36.37
37.694
39.243
41.019
43.02
45.242
47.681
50.332
53.191
56.251
59.504
62.94
66.549
70.319
74.239
78.293
82.464
86.729
91.066
95.454
99.868
104.286
108.679
113.022
117.291
121.465
125.526
129.447
133.203
136.761
140.095
143.18
145.99
148.498
150.678
152.505
153.963
155.05
155.755
156.066
155.956
155.388
154.338
152.795
150.746
148.186
145.119
141.552
137.521
133.087
128.304
123.219
117.862
112.247
106.416
100.419
94.313
88.175
82.052
75.98
70.006
64.141
58.354
52.592
46.753
40.717
34.383
27.624
20.304
12.31
3.522
-6.12
-16.718
-28.52
-41.636
-56.004
-71.414
-87.315
-103.127
-118.471
-132.733
-145.039
-154.845
-161.99
-166.875
-170.715
-174.855
-180.389
-188.564
-200.986
-217.412
-235.253
-251.672
-262.976
-269.841
-277.94
-287.459
-293.71
-283.133
-235.343
-143.931
-14.333
137.396
287.402
427.22
556.524
672.88
772.847
837.304
841.388
774.425
635.811
438.62
209.422
-29.462
-257.48
-451.339
-598.391
-694.841
-741.445
-751.212
-737.702
-703.515
-653.893
-594.348
-527.456
-465.292
-415.049
-372.723
-337.103
-305.462
-276.036
-256.656
-252.322
-258.824
-271.962
-283.145
-283.406
-275.523
-262.638
-247.862
-236.439
-225.954
-214.139
-201.247
-186.488
-172.263
-160.68
-151.641
-145.199
-140.803
-137.67
-135.559
-134.114
-132.753
-131.177
-129.301
-127.108
-124.697
-122.153
-119.502
-116.793
-114.135
-111.594
-109.192
-106.961
-104.915
-103.097
-101.582
-100.404
-99.57
-99.063
-98.849
-98.887
-99.133
-99.522
-99.976
-100.428
-100.817
-101.087
-101.19
-101.066
-100.647
-99.872
-98.681
-97.02
-94.844
-92.112
-88.791
-84.855
-80.292
-75.092
-69.256
-62.786
-55.684
-47.96
-39.629
-30.711
-21.233
-11.226
-0.727
10.221
21.569
33.264
45.246
57.457
69.833
82.31
94.82
107.294
119.663
131.857
143.807
155.444
166.699
177.507
187.802
197.523
206.613
215.017
222.684
229.569
235.631
240.835
245.151
248.556
251.031
252.564
253.149
252.787
251.485
249.253
246.111
242.082
237.196
231.487
224.997
217.768
209.848
201.291
192.15
182.483
172.349
161.811
150.931
139.772
128.399
116.875
105.265
93.631
82.036
70.538
59.196
48.064
37.195
26.638
16.437
6.635
-2.732
-11.628
-20.026
-27.901
-35.23
-41.999
-48.196
-53.811
-58.842
-63.289
-67.157
-70.452
-73.186
-75.373
-77.029
-78.174
-78.83
-79.021
-78.771
-78.107
-77.058
-75.653
-73.923
-71.897
-69.607
-67.084
-64.357
-61.458
-58.415
-55.257
-52.01
-48.701
-45.353
-41.989
-38.63
-35.295
-32
-28.763
-25.595
-22.508
-19.512
-16.615
-13.822
-11.138
-8.567
-6.11
-3.768
-1.541
0.573
2.575
4.468
6.256
7.941
9.529
11.023
12.43
13.753
14.999
16.171
17.274
18.313
19.291
20.212
21.08
21.895
22.661
23.379
24.048
24.669
25.241
25.762
26.229
26.639
26.989
27.274
27.488
27.629
27.69
27.667
27.554
27.347
27.042
26.633
26.116
25.488
24.744
23.88
22.894
21.782
20.543
19.176
17.678
16.051
14.293
12.406
10.392
8.253
5.99
3.608
1.111
-1.496
-4.207
-7.015
-9.912
-12.889
-15.936
-19.044
-22.202
-25.399
-28.625
-31.868
-35.118
-38.362
-41.59
-44.79
-47.95
-51.057
-54.098
-57.062
-59.936
-62.709
-65.369
-67.907
-70.311
-72.572
-74.682
-76.631
-78.411
-80.013
-81.43
-82.656
-83.684
-84.51
-85.131
-85.544
-85.751
-85.753
-85.554
-85.157
-84.569
-83.795
-82.843
-81.722
-80.442
-79.013
-77.448
-75.759
-73.965
-72.086
-70.146
-68.167
-66.174
-64.192
-62.247
-60.365
-58.571
-56.885
-55.323
-53.906
-52.657
-51.601
-50.761
-50.159
-49.818
-49.761
-50.01
-50.582
-51.489
-52.735
-54.317
-56.238
-58.504
-61.128
-64.136
-67.548
-71.372
-75.616
-80.28
-85.353
-90.814
-96.62
-102.707
-109.023
-115.512
-122.129
-128.843
-135.608
-142.389
-149.144
-155.8
-162.29
-168.566
-174.601
-180.398
-185.994
-191.407
-196.667
-201.87
-207.127
-212.576
-218.355
-224.555
-231.223
-238.437
-246.388
-255.218
-264.933
-275.352
-285.978
-296.249
-305.718
-313.854
-319.921
-323.37
-324.061
-322.343
-319.389
-316.791
-315.968
-318.459
-326.142
-339.017
-354.893
-371.479
-385.074
-395.062
-405.079
-413.748
-416.194
-401.852
-354.301
-267.365
-144.61
3.686
160.029
313.087
456.743
580.756
673.99
722.498
710.686
635.823
504.675
327.168
121.902
-94.136
-304.496
-485.727
-621.13
-703.243
-733.024
-725.718
-699.043
-662.752
-621.806
-574.925
-518.194
-454.414
-389.532
-329.505
-280.935
-246.152
-223.863
-212.37
-209.077
-211.019
-215.836
-221.163
-224.333
-223.951
-219.902
-212.558
-203.055
-192.842
-183.06
-174.9
-169.734
-168.248
-170.469
-176.121
-184.426
-194.458
-205.532
-216.967
-228.069
-238.411
-247.699
-255.662
-262.16
-267.096
-270.374
-271.979
-271.939
-270.253
-266.989
-262.286
-256.352
-249.472
-241.86
-233.636
-224.879
-215.633
-205.954
-195.919
-185.595
-174.995
-164.131
-153.023
-141.694
-130.178
-118.472
-106.522
-94.242
-81.527
-68.317
-54.588
-40.335
-25.564
-10.292
5.46
21.65
38.211
55.087
72.234
89.613
107.187
124.909
142.714
160.533
178.298
195.942
213.401
230.614
247.518
264.054
280.172
295.827
310.98
325.587
339.603
352.986
365.693
377.682
388.919
399.368
408.994
417.771
425.676
432.69
438.801
443.999
448.279
451.639
454.082
455.616
456.252
456.004
454.89
452.933
450.159
446.598
442.283
437.249
431.537
425.187
418.244
410.754
402.762
394.317
385.466
376.26
366.748
356.98
347.007
336.877
326.639
316.343
306.035
295.76
285.561
275.479
265.551
255.812
246.297
237.033
228.049
219.368
211.01
202.995
195.336
188.047
181.135
174.608
168.468
162.717
157.353
152.372
147.769
143.536
139.663
136.139
132.953
130.09
127.536
125.276
123.294
121.574
120.099
118.852
117.817
116.978
116.319
115.826
115.483
115.279
115.201
115.238
115.38
115.62
115.95
116.364
116.857
117.427
118.07
118.786
119.574
120.434
121.368
122.377
123.464
124.632
125.884
127.223
128.652
130.177
131.798
133.521
135.347
137.28
139.321
141.473
143.735
146.108
148.592
151.185
153.884
156.685
159.584
162.576
165.652
168.804
172.024
175.302
178.625
181.982
185.361
188.747
192.128
195.488
198.814
202.091
205.303
208.437
211.478
214.411
217.221
219.896
222.42
224.781
226.967
228.964
230.761
232.349
233.715
234.852
235.752
236.407
236.811
236.959
236.847
236.474
235.839
234.942
233.785
232.372
230.708
228.799
226.652
224.276
221.68
218.875
215.87
212.679
209.314
205.787
202.113
198.305
194.381
190.355
186.245
182.068
177.841
173.582
169.308
165.038
160.789
156.577
152.421
148.337
144.342
140.452
136.682
133.046
129.556
126.226
123.064
120.077
117.272
114.653
112.223
109.983
107.932
106.07
104.392
102.894
101.568
100.405
99.396
98.526
97.779
97.136
96.575
96.073
95.606
95.145
94.659
94.118
93.494
92.762
91.898
90.877
89.669
88.252
86.602
84.7
82.524
80.051
77.255
74.12
70.639
66.811
62.652
58.166
53.355
48.213
42.725
36.88
30.683
24.13
17.212
9.939
2.328
-5.572
-13.673
-21.911
-30.236
-38.616
-47.072
-55.592
-64.129
-72.628
-80.988
-89.101
-96.957
-104.512
-111.656
-118.411
-124.839
-131.116
-137.707
-145
-153.086
-162.018
-171.723
-181.865
-192.209
-202.357
-211.397
-218.493
-223.122
-224.935
-224.076
-221.18
-216.613
-210.85
-205.044
-200.636
-199.189
-202.05
-209.749
-222.241
-239.559
-261.427
-286.968
-312.767
-334.261
-348.816
-353.121
-346.99
-330.557
-296.904
-241.259
-160.367
-53.602
68.028
193.517
316.215
432.202
543.972
650.332
741.04
800.106
807.771
750.232
625.472
439.862
211.944
-31.835
-264.947
-457.027
-587.924
-656.182
-670.526
-653.063
-626.406
-598.668
-570.937
-538.564
-495.135
-442.247
-385.398
-329.814
-280.827
-241.153
-210.969
-189.561
-175.461
-166.969
-162.649
-161.43
-162.139
-162.966
-162.154
-158.885
-153.125
-145.457
-136.761
-127.627
-118.575
-110.559
-104.626
-101.232
-100.332
-101.516
-104.118
-107.688
-111.939
-116.411
-120.587
-124.112
-126.755
-128.417
-129.117
-128.826
-127.495
-125.166
-121.948
-118.015
-113.602
-108.902
-104.069
-99.221
-94.425
-89.726
-85.149
-80.694
-76.348
-72.109
-67.99
-64.008
-60.186
-56.521
-52.981
-49.502
-45.985
-42.339
-38.478
-34.335
-29.867
-25.043
-19.845
-14.273
-8.347
-2.08
4.517
11.442
18.696
26.274
34.16
42.33
50.754
59.398
68.224
77.192
86.261
95.389
104.537
113.671
122.756
131.757
140.637
149.353
157.862
166.12
174.08
181.699
188.927
195.722
202.04
207.842
213.092
217.757
221.805
225.209
227.944
229.992
231.335
231.961
231.861
231.03
229.469
227.182
224.177
220.466
216.068
211.001
205.292
198.969
192.063
184.609
176.643
168.206
159.34
150.087
140.493
130.607
120.476
110.15
99.679
89.115
78.505
67.9
57.347
46.89
36.574
26.44
16.526
6.869
-2.498
-11.545
-20.246
-28.576
-36.517
-44.05
-51.163
-57.847
-64.095
-69.903
-75.272
-80.204
-84.706
-88.784
-92.451
-95.718
-98.6
-101.115
-103.279
-105.113
-106.637
-107.873
-108.844
-109.57
-110.077
-110.384
-110.515
-110.491
-110.332
-110.057
-109.683
-109.229
-108.707
-108.132
-107.516
-106.867
-106.194
-105.503
-104.799
-104.085
-103.363
-102.632
-101.891
-101.139
-100.371
-99.584
-98.772
-97.931
-97.055
-96.137
-95.172
-94.154
-93.077
-91.935
-90.726
-89.443
-88.085
-86.649
-85.135
-83.542
-81.872
-80.128
-78.313
-76.434
-74.497
-72.51
-70.482
-68.425
-66.349
-64.268
-62.196
-60.148
-58.138
-56.183
-54.299
-52.502
-50.808
-49.234
-47.796
-46.509
-45.388
-44.447
-43.698
-43.155
-42.828
-42.728
-42.861
-43.235
-43.855
-44.724
-45.843
-47.213
-48.83
-50.692
-52.793
-55.126
-57.682
-60.453
-63.424
-66.584
-69.918
-73.409
-77.04
-80.792
-84.645
-88.58
-92.575
-96.611
-100.667
-104.721
-108.752
-112.74
-116.665
-120.507
-124.246
-127.863
-131.339
-134.659
-137.808
-140.771
-143.536
-146.092
-148.429
-150.54
-152.422
-154.069
-155.479
-156.65
-157.583
-158.282
-158.752
-159
-159.034
-158.864
-158.503
-157.971
-157.286
-156.467
-155.533
-154.504
-153.403
-152.252
-151.07
-149.873
-148.676
-147.497
-146.356
-145.274
-144.274
-143.372
-142.587
-141.934
-141.433
-141.098
-140.931
-140.928
-141.085
-141.402
-141.89
-142.571
-143.455
-144.541
-145.829
-147.31
-148.966
-150.769
-152.665
-154.575
-156.43
-158.176
-159.772
-161.198
-162.414
-163.369
-164.011
-164.278
-164.128
-163.536
-162.451
-160.845
-158.767
-156.293
-153.569
-150.772
-148
-145.352
-142.97
-140.971
-139.485
-138.642
-138.469
-139.049
-140.614
-143.247
-146.874
-151.236
-155.643
-159.368
-161.901
-162.518
-160.294
-154.775
-146.038
-134.67
-122.246
-110.538
-100.766
-94.447
-93.584
-97.778
-104.028
-109.452
-109.573
-103.456
-95.457
-84.437
-65.188
-27.99
41.594
148.192
286.268
444.877
609.059
768.223
913.854
1033.619
1112.726
1133.555
1083.364
962.228
778.144
548.93
300.049
55.217
-158.187
-317.067
-416.02
-460.691
-468.123
-460.107
-444.687
-419.411
-382.204
-332.565
-277.755
-233.045
-204.687
-189.53
-183.308
-177.263
-167.991
-160.446
-156.68
-157.625
-163.137
-168.97
-171.992
-171.701
-168.001
-161.542
-153.379
-144.079
-134
-124.008
-115.187
-107.996
-102.599
-98.931
-96.513
-94.917
-93.776
-92.57
-90.751
-88.014
-84.205
-79.281
-73.334
-66.434
-58.644
-50.068
-40.817
-30.976
-20.603
-9.766
1.467
13
24.699
36.47
48.251
59.996
71.682
83.301
94.842
106.315
117.759
129.193
140.629
152.072
163.521
174.985
186.483
198.036
209.661
221.372
233.179
245.087
257.099
269.211
281.415
293.694
306.029
318.403
330.804
343.216
355.623
368.007
380.347
392.621
404.808
416.879
428.805
440.553
452.088
463.375
474.379
485.064
495.392
505.324
514.822
523.848
532.364
540.331
547.712
554.47
560.567
565.97
570.645
574.561
577.688
580
581.471
582.08
581.809
580.641
578.563
575.565
571.64
566.786
561.001
554.289
546.658
538.117
528.682
518.371
507.205
495.211
482.415
468.85
454.55
439.553
423.897
407.625
390.781
373.411
355.564
337.289
318.638
299.664
280.419
260.959
241.337
221.608
201.827
182.047
162.323
142.707
123.251
104.007
85.025
66.352
48.037
30.123
12.656
-4.325
-20.781
-36.673
-51.969
-66.637
-80.647
-93.972
-106.588
-118.475
-129.614
-139.988
-149.586
-158.397
-166.415
-173.635
-180.056
-185.681
-190.513
-194.561
-197.834
-200.344
-202.107
-203.139
-203.459
-203.09
-202.055
-200.379
-198.09
-195.219
-191.796
-187.854
-183.429
-178.556
-173.271
-167.613
-161.62
-155.331
-148.786
-142.026
-135.091
-128.023
-120.862
-113.65
-106.427
-99.234
-92.11
-85.092
-78.218
-71.524
-65.044
-58.813
-52.863
-47.226
-41.931
-37.007
-32.484
-28.384
-24.733
-21.553
-18.862
-16.678
-15.015
-13.886
-13.299
-13.263
-13.785
-14.868
-16.515
-18.724
-21.494
-24.819
-28.693
-33.106
-38.048
-43.502
-49.454
-55.886
-62.78
-70.117
-77.876
-86.033
-94.563
-103.441
-112.639
-122.127
-131.87
-141.833
-151.982
-162.277
-172.682
-183.154
-193.655
-204.146
-214.591
-224.955
-235.203
-245.299
-255.209
-264.902
-274.342
-283.494
-292.321
-300.781
-308.836
-316.456
-323.608
-330.267
-336.408
-342.007
-347.044
-351.512
-355.397
-358.688
-361.363
-363.386
-364.748
-365.464
-365.563
-365.095
-364.107
-362.636
-360.742
-358.499
-355.959
-353.161
-350.104
-346.748
-343.089
-339.148
-334.979
-330.672
-326.281
-321.813
-317.277
-312.664
-307.963
-303.18
-298.26
-293.102
-287.686
-282.056
-276.352
-270.803
-265.559
-260.707
-256.31
-252.374
-248.941
-246.076
-243.792
-242.099
-241.037
-240.653
-241.098
-242.582
-245.181
-248.849
-253.421
-258.641
-264.364
-270.526
-277.048
-283.858
-290.899
-298.193
-305.885
-314.153
-323.076
-332.557
-342.382
-352.484
-362.921
-373.855
-385.536
-397.936
-410.913
-424.665
-439.338
-454.642
-470.069
-484.499
-496.573
-505.859
-512.063
-514.432
-512.666
-507.015
-498.295
-488.633
-480.167
-473.862
-470.895
-472.647
-479.679
-490.35
-500.413
-504.783
-499.592
-486.045
-467.491
-442.321
-404.751
-343.547
-246.977
-114.6
45.721
220.272
390.817
544.824
671.846
759.713
801.316
788.864
717.388
591.033
412.78
193.063
-47.036
-284.472
-488.167
-633.46
-714.496
-736.202
-715.207
-670.154
-610.707
-545.082
-481.523
-425.805
-383.933
-356.209
-335.229
-315.279
-293.747
-271.388
-253.843
-244.304
-241.348
-242.481
-243.785
-241.932
-236.34
-227.331
-215.331
-201.263
-186.11
-170.513
-155.401
-141.985
-130.757
-121.867
-115.388
-110.922
-108.039
-106.4
-105.393
-104.378
-103.028
-101.144
-98.663
-95.668
-92.164
-88.156
-83.749
-79.05
-74.143
-69.096
-63.922
-58.638
-53.306
-48.01
-42.849
-37.891
-33.157
-28.652
-24.365
-20.284
-16.392
-12.648
-8.992
-5.375
-1.755
1.902
5.622
9.446
13.42
17.59
21.997
26.678
31.657
36.958
42.602
48.597
54.948
61.654
68.706
76.097
83.821
91.866
100.219
108.862
117.772
126.923
136.288
145.832
155.516
165.3
175.138
184.985
194.794
204.514
214.096
223.488
232.638
241.495
250.009
258.13
265.808
272.994
279.644
285.716
291.169
295.967
300.077
303.468
306.117
308.005
309.114
309.434
308.958
307.686
305.62
302.769
299.148
294.774
289.67
283.863
277.387
270.279
262.578
254.33
245.582
236.384
226.789
216.852
206.629
196.176
185.553
174.817
164.026
153.239
142.512
131.902
121.461
111.243
101.296
91.667
82.4
73.535
65.108
57.153
49.7
42.773
36.394
30.581
25.347
20.7
16.648
13.19
10.324
8.044
6.341
5.2
4.607
4.541
4.982
5.906
7.287
9.097
11.308
13.888
16.808
20.035
23.536
27.28
31.233
35.366
39.646
44.044
48.53
53.079
57.663
62.258
66.843
71.395
75.897
80.331
84.683
88.939
93.09
97.127
101.043
104.833
108.494
112.025
115.426
118.699
121.848
124.875
127.787
130.59
133.291
135.897
138.417
140.86
143.235
145.55
147.815
150.038
152.226
154.389
156.531
158.66
160.78
162.895
165.009
167.124
169.242
171.362
173.483
175.604
177.722
179.832
181.93
184.009
186.062
188.082
190.062
191.993
193.865
195.671
197.4
199.043
200.591
202.034
203.363
204.567
205.637
206.566
207.345
207.966
208.425
208.715
208.834
208.779
208.552
208.152
207.58
206.839
205.934
204.871
203.658
202.303
200.815
199.205
197.487
195.675
193.784
191.829
189.825
187.79
185.739
183.692
181.663
179.669
177.726
175.85
174.057
172.365
170.789
169.341
168.033
166.879
165.886
165.063
164.413
163.931
163.615
163.461
163.464
163.616
163.906
164.322
164.856
165.5
166.246
167.078
167.977
168.921
169.891
170.868
171.83
172.754
173.615
174.391
175.07
175.649
176.114
176.444
176.611
176.571
176.296
175.773
174.984
173.918
172.573
170.956
169.1
167.071
164.916
162.668
160.358
157.993
155.614
153.281
151.036
148.931
147.007
145.275
143.759
142.479
141.383
140.394
139.428
138.331
136.987
135.306
133.123
130.29
126.689
122.163
116.562
109.821
101.917
92.975
83.407
73.74
64.519
56.371
49.941
45.731
44
44.547
46.422
48.244
48.819
47.155
42.052
32.605
18.753
1.182
-16.606
-28.734
-31.946
-24.026
-4.091
24.99
66.833
128.241
211.954
322.402
453.932
593.264
732.387
860.354
969.803
1055.764
1105.712
1108.414
1055.124
942.459
776.71
570.586
342.147
112.472
-96.118
-264.183
-379.113
-437.984
-446.497
-416.056
-362.216
-299.128
-241.169
-198.792
-173.242
-161.338
-153.462
-141.086
-123.5
-103.314
-86.848
-78.776
-78.35
-82.658
-87.665
-90.171
-88.955
-84.021
-75.852
-64.945
-52.066
-38.111
-24.038
-11.13
-0.329
8.025
13.775
17.07
18.322
17.891
16.342
14.439
12.657
11.249
10.347
9.89
9.843
10.236
10.994
12.003
13.196
14.515
15.947
17.524
19.216
20.955
22.66
24.228
25.61
26.798
27.79
28.608
29.279
29.835
30.341
30.876
31.499
32.267
33.226
34.413
35.882
37.69
39.888
42.529
45.651
49.285
53.456
58.185
63.48
69.344
75.771
82.747
90.257
98.287
106.815
115.816
125.261
135.115
145.338
155.888
166.716
177.767
188.986
200.309
211.675
223.017
234.267
245.356
256.214
266.77
276.956
286.702
295.94
304.604
312.632
319.962
326.538
332.307
337.219
341.229
344.297
346.388
347.471
347.523
346.524
344.46
341.323
337.111
331.827
325.479
318.083
309.658
300.229
289.829
278.494
266.266
253.191
239.32
224.708
209.413
193.497
177.023
160.058
142.67
124.928
106.903
88.665
70.286
51.836
33.386
15.004
-3.242
-21.285
-39.063
-56.512
-73.574
-90.191
-106.31
-121.878
-136.848
-151.176
-164.819
-177.742
-189.909
-201.291
-211.862
-221.601
-230.49
-238.514
-245.663
-251.932
-257.318
-261.821
-265.447
-268.203
-270.101
-271.155
-271.381
-270.8
-269.433
-267.306
-264.445
-260.878
-256.636
-251.752
-246.259
-240.192
-233.589
-226.487
-218.925
-210.945
-202.585
-193.889
-184.897
-175.652
-166.196
-156.572
-146.821
-136.986
-127.108
-117.228
-107.387
-97.624
-87.978
-78.487
-69.188
-60.117
-51.308
-42.794
-34.607
-26.777
-19.333
-12.303
-5.712
0.416
6.058
11.195
15.807
19.878
23.395
26.344
28.717
30.507
31.707
32.316
32.333
31.761
30.604
28.869
26.564
23.701
20.294
16.36
11.917
6.985
1.587
-4.252
-10.506
-17.146
-24.143
-31.465
-39.081
-46.957
-55.057
-63.348
-71.791
-80.35
-88.987
-97.664
-106.344
-114.986
-123.552
-132.007
-140.313
-148.434
-156.337
-163.987
-171.354
-178.407
-185.118
-191.46
-197.41
-202.943
-208.041
-212.686
-216.864
-220.563
-223.773
-226.488
-228.705
-230.425
-231.649
-232.382
-232.633
-232.41
-231.726
-230.598
-229.045
-227.086
-224.744
-222.045
-219.022
-215.709
-212.142
-208.356
-204.389
-200.28
-196.071
-191.799
-187.5
-183.205
-178.946
-174.759
-170.679
-166.743
-162.983
-159.429
-156.11
-153.057
-150.298
-147.852
-145.733
-143.946
-142.498
-141.405
-140.688
-140.378
-140.495
-141.048
-142.041
-143.474
-145.335
-147.601
-150.225
-153.134
-156.264
-159.559
-162.973
-166.47
-170.002
-173.506
-176.924
-180.187
-183.232
-186.012
-188.505
-190.707
-192.661
-194.432
-196.1
-197.801
-199.679
-201.895
-204.622
-207.978
-212.049
-216.962
-222.895
-230.006
-238.35
-247.734
-257.713
-267.814
-277.593
-286.522
-293.92
-299.08
-301.635
-302.002
-301.188
-300.275
-300.367
-302.67
-308.557
-319.356
-334.247
-349.429
-360.872
-365.958
-366.088
-364.993
-361.981
-349.254
-312.977
-241.735
-132.978
4.237
152.871
299.649
435.002
553.236
648.348
707.956
720.595
676.662
576.069
427.336
238.895
27.722
-189.64
-394.542
-560.583
-675.926
-738.822
-757.67
-754.471
-741.341
-721.925
-696.222
-657.974
-607.549
-551.5
-495.62
-446.318
-407.548
-379.387
-360.934
-350.597
-345.916
-344.249
-343.715
-342.538
-338.562
-330.754
-318.84
-302.821
-283.647
-262.62
-240.592
-218.643
-198.152
-179.782
-163.828
-150.401
-139.088
-129.423
-121.05
-113.404
-105.87
-98.124
-89.994
-81.428
-72.52
-63.294
-53.74
-43.918
-33.915
-23.807
-13.666
-3.56
6.455
16.276
25.76
34.791
43.278
51.157
58.409
65.014
70.917
76.047
80.306
83.579
85.822
87.029
87.229
86.532
85.067
83.009
80.593
78.006
75.409
72.959
70.754
68.892
67.528
66.827
67.006
68.328
70.958
75
80.528
87.494
95.812
105.336
115.811
127.016
138.781
150.943
163.398
176.053
188.751
201.338
213.628
225.379
236.412
246.587
255.768
263.907
271.002
277.093
282.318
286.794
290.583
293.731
296.245
298.108
299.342
299.956
299.956
299.389
298.289
296.684
294.617
292.098
289.11
285.623
281.569
276.884
271.544
265.538
258.875
251.585
243.694
235.243
226.291
216.886
207.072
196.894
186.385
175.589
164.558
153.349
142.024
130.647
119.274
107.959
96.752
85.699
74.839
64.208
53.833
43.739
33.956
24.512
15.433
6.748
-1.521
-9.351
-16.72
-23.611
-30.009
-35.901
-41.279
-46.137
-50.469
-54.272
-57.544
-60.285
-62.497
-64.182
-65.345
-65.991
-66.127
-65.76
-64.9
-63.557
-61.741
-59.463
-56.735
-53.571
-49.983
-45.985
-41.591
-36.815
-31.673
-26.181
-20.358
-14.222
-7.793
-1.09
5.863
13.045
20.431
27.999
35.724
43.582
51.544
59.586
67.68
75.799
83.914
91.997
100.018
107.951
115.765
123.432
130.925
138.215
145.275
152.079
158.601
164.816
170.701
176.235
181.397
186.168
190.53
194.47
197.973
201.027
203.624
205.755
207.417
208.607
209.324
209.57
209.351
208.672
207.544
205.977
203.985
201.582
198.787
195.618
192.097
188.246
184.089
179.652
174.961
170.043
164.927
159.641
154.212
148.669
143.038
137.348
131.625
125.896
120.187
114.522
108.928
103.426
98.04
92.792
87.698
82.777
78.044
73.512
69.195
65.103
61.245
57.628
54.257
51.138
48.274
45.664
43.305
41.192
39.318
37.675
36.252
35.038
34.019
33.181
32.509
31.989
31.606
31.342
31.182
31.103
31.087
31.109
31.147
31.174
31.165
31.096
30.944
30.69
30.317
29.809
29.156
28.346
27.367
26.208
24.856
23.295
21.518
19.518
17.294
14.851
12.193
9.331
6.29
3.089
-0.261
-3.755
-7.414
-11.248
-15.247
-19.397
-23.68
-28.065
-32.53
-37.028
-41.477
-45.801
-49.925
-53.796
-57.416
-60.775
-63.83
-66.517
-68.733
-70.416
-71.583
-72.254
-72.412
-72.048
-71.137
-69.737
-68.067
-66.314
-64.633
-63.15
-61.867
-60.89
-60.473
-60.781
-61.888
-63.669
-65.63
-67.232
-68.103
-67.694
-65.372
-60.749
-53.461
-43.677
-32.646
-22.117
-13.991
-10.328
-11.657
-16.645
-24.215
-33.661
-46.754
-66.636
-91.396
-112.487
-114.224
-79.818
-2.715
109.907
240.771
371.681
493.926
611.134
728.552
843.115
939.985
993.154
982
902.016
762.568
584.187
385.627
176.936
-35.065
-241.339
-427.871
-576.82
-672.121
-709.403
-693.464
-634.761
-550.832
-457.272
-369.105
-299.444
-250.956
-220.12
-197.892
-175.123
-149.805
-124.404
-104.69
-94.501
-93.081
-97.423
-102.854
-105.996
-105.426
-100.789
-92.842
-82.48
-70.517
-58.003
-46.008
-35.618
-27.989
-23.685
-22.667
-24.6
-28.761
-34.408
-40.998
-47.955
-54.72
-60.978
-66.502
-71.157
-74.945
-77.774
-79.541
-80.232
-79.826
-78.328
-75.817
-72.388
-68.207
-63.512
-58.458
-53.138
-47.616
-41.891
-35.98
-29.906
-23.66
-17.247
-10.678
-3.948
2.935
9.965
17.185
24.654
32.461
40.731
49.548
58.963
69.016
79.712
91.049
103.02
115.595
128.729
142.389
156.538
171.141
186.17
201.578
217.308
233.296
249.462
265.728
282.019
298.256
314.364
330.267
345.89
361.163
376.022
390.399
404.222
417.419
429.916
441.639
452.521
462.494
471.494
479.46
486.338
492.081
496.645
499.996
502.102
502.94
502.49
500.74
497.684
493.324
487.665
480.721
472.513
463.066
452.413
440.594
427.655
413.645
398.622
382.646
365.781
348.096
329.662
310.556
290.854
270.638
249.991
228.998
207.745
186.318
164.805
143.292
121.862
100.598
79.581
58.886
38.588
18.758
-0.538
-19.236
-37.279
-54.61
-71.182
-86.949
-101.873
-115.919
-129.06
-141.272
-152.54
-162.85
-172.197
-180.58
-188.002
-194.472
-200.005
-204.617
-208.333
-211.18
-213.189
-214.395
-214.836
-214.556
-213.598
-212.009
-209.838
-207.135
-203.951
-200.339
-196.353
-192.044
-187.467
-182.675
-177.718
-172.65
-167.52
-162.375
-157.262
-152.225
-147.306
-142.544
-137.975
-133.632
-129.547
-125.746
-122.256
-119.096
-116.288
-113.846
-111.782
-110.107
-108.828
-107.949
-107.471
-107.393
-107.713
-108.423
-109.518
-110.987
-112.82
-115.005
-117.528
-120.374
-123.529
-126.975
-130.696
-134.675
-138.894
-143.337
-147.987
-152.827
-157.841
-163.016
-168.337
-173.79
-179.363
-185.046
-190.827
-196.697
-202.648
-208.67
-214.757
-220.902
-227.101
-233.346
-239.634
-245.96
-252.318
-258.706
-265.118
-271.55
-277.997
-284.452
-290.909
-297.361
-303.801
-310.218
-316.603
-322.945
-329.231
-335.448
-341.584
-347.621
-353.542
-359.328
-364.961
-370.42
-375.684
-380.729
-385.531
-390.066
-394.311
-398.242
-401.835
-405.064
-407.906
-410.338
-412.34
-413.891
-414.974
-415.57
-415.664
-415.245
-414.304
-412.835
-410.834
-408.3
-405.237
-401.656
-397.569
-392.994
-387.95
-382.46
-376.55
-370.249
-363.588
-356.597
-349.309
-341.76
-333.99
-326.045
-317.974
-309.823
-301.641
-293.478
-285.383
-277.408
-269.598
-261.984
-254.603
-247.496
-240.712
-234.314
-228.351
-222.855
-217.856
-213.382
-209.445
-206.054
-203.19
-200.799
-198.842
-197.284
-196.107
-195.322
-194.903
-194.807
-194.971
-195.308
-195.775
-196.363
-197.047
-197.797
-198.613
-199.521
-200.628
-202.105
-204.048
-206.534
-209.549
-213.039
-217.153
-222.067
-227.947
-235.031
-243.337
-252.73
-263.284
-274.928
-286.932
-298.448
-308.361
-315.319
-318.842
-318.814
-314.873
-307.513
-298.399
-289.497
-283.661
-282.571
-284.976
-289.963
-296.655
-306.907
-326
-353.838
-385.147
-405.922
-393.856
-335.89
-228.832
-83.23
74.811
226.339
360.197
474.365
581.289
685.165
780.645
856.448
886.808
851.912
744.713
565.078
334.807
86.338
-149.173
-337.723
-462.964
-526.738
-538.28
-517.897
-480.423
-433.506
-385.944
-340.813
-302.892
-275.376
-253.138
-232.802
-211.043
-187.529
-168.387
-157.154
-154.957
-160.756
-170.624
-182.202
-194.436
-206.635
-218.568
-229.597
-239.008
-246.278
-251.136
-253.714
-254.143
-252.441
-248.825
-243.435
-236.659
-229.435
-222.318
-215.435
-208.981
-203.026
-197.669
-193.298
-189.834
-186.59
-183.17
-179.384
-175.088
-170.385
-165.246
-159.393
-152.86
-145.986
-138.99
-132.061
-125.295
-118.593
-111.947
-105.448
-99.102
-92.868
-86.711
-80.566
-74.413
-68.29
-62.208
-56.162
-50.135
-44.086
-37.982
-31.802
-25.525
-19.129
-12.593
-5.892
0.996
8.082
15.381
22.904
30.666
38.686
46.975
55.544
64.397
73.532
82.942
92.62
102.552
112.724
123.117
133.707
144.47
155.379
166.406
177.518
188.681
199.859
211.012
222.102
233.085
243.921
254.564
264.972
275.101
284.906
294.345
303.376
311.958
320.054
327.626
334.642
341.069
346.881
352.053
356.563
360.394
363.532
365.969
367.697
368.718
369.032
368.648
367.576
365.831
363.431
360.397
356.754
352.528
347.75
342.452
336.668
330.437
323.795
316.784
309.446
301.822
293.957
285.893
277.675
269.346
260.947
252.522
244.109
235.749
227.478
219.332
211.346
203.551
195.976
188.649
181.595
174.836
168.392
162.279
156.514
151.108
146.072
141.414
137.14
133.255
129.761
126.659
123.948
121.626
119.688
118.13
116.944
116.124
115.659
115.54
115.757
116.299
117.154
118.309
119.754
121.474
123.457
125.689
128.157
130.847
133.746
136.838
140.111
143.551
147.142
150.871
154.723
158.683
162.737
166.867
171.059
175.294
179.555
183.825
188.085
192.315
196.495
200.607
204.628
208.539
212.317
215.942
219.391
222.643
225.677
228.471
231.005
233.257
235.209
236.84
238.133
239.07
239.635
239.812
239.586
238.947
237.882
236.382
234.441
232.052
229.212
225.92
222.177
217.987
213.355
208.289
202.801
196.902
190.611
183.943
176.921
169.565
161.9
153.952
145.747
137.314
128.682
119.88
110.939
101.89
92.765
83.595
74.413
65.25
56.138
47.108
38.192
29.416
20.809
12.397
4.203
-3.748
-11.435
-18.839
-25.941
-32.728
-39.183
-45.296
-51.056
-56.459
-61.502
-66.184
-70.507
-74.475
-78.094
-81.37
-84.313
-86.933
-89.239
-91.243
-92.955
-94.39
-95.565
-96.497
-97.205
-97.709
-98.032
-98.196
-98.223
-98.132
-97.939
-97.657
-97.297
-96.868
-96.378
-95.833
-95.238
-94.604
-93.938
-93.245
-92.528
-91.785
-91.009
-90.196
-89.336
-88.412
-87.413
-86.332
-85.172
-83.96
-82.713
-81.435
-80.129
-78.788
-77.398
-75.949
-74.411
-72.718
-70.808
-68.615
-66.086
-63.218
-60.001
-56.403
-52.369
-47.818
-42.709
-37.071
-30.941
-24.323
-17.212
-9.606
-1.594
6.577
14.657
22.427
29.733
36.481
42.457
47.418
51.209
53.894
55.867
57.664
59.706
62.356
66.112
71.361
78.27
86.475
94.761
101.727
105.957
105.83
99.869
87.027
68.324
47.427
28.642
15.474
7.814
3.581
4.693
17.537
53.432
123.289
228.54
362.999
514.875
670.062
817.592
944.521
1033.838
1070.119
1043.271
954.94
819.508
653.615
468.666
271.922
70.357
-123.058
-286.634
-401.017
-458.89
-465.013
-433.969
-381.166
-316.56
-248.327
-185.926
-138.567
-112.714
-107.792
-114.838
-124.268
-129.739
-130.004
-129.343
-129.963
-131.619
-132.952
-130.324
-122.273
-109.801
-94.019
-77.016
-60.932
-46.513
-34.219
-24.549
-17.361
-12.45
-9.659
-8.367
-7.854
-7.675
-7.41
-6.786
-5.796
-4.387
-2.516
-0.229
2.448
5.473
8.756
12.254
15.944
19.786
23.751
27.778
31.777
35.662
39.338
42.754
45.897
48.762
51.358
53.705
55.822
57.759
59.589
61.371
63.156
64.995
66.931
69.023
71.34
73.943
76.887
80.218
83.973
88.187
92.892
98.112
103.861
110.147
116.969
124.328
132.224
140.65
149.594
159.039
168.96
179.328
190.112
201.272
212.762
224.53
236.522
248.678
260.938
273.236
285.504
297.672
309.67
321.424
332.863
343.912
354.499
364.551
373.998
382.773
390.811
398.052
404.436
409.91
414.425
417.938
420.409
421.806
422.1
421.271
419.303
416.188
411.924
406.516
399.975
392.32
383.574
373.77
362.943
351.138
338.4
324.784
310.347
295.152
279.263
262.752
245.688
228.148
210.209
191.949
173.447
154.782
136.035
117.284
98.608
80.082
61.782
43.78
26.147
8.948
-7.752
-23.895
-39.423
-54.287
-68.439
-81.838
-94.445
-106.229
-117.16
-127.217
-136.381
-144.638
-151.979
-158.399
-163.9
-168.485
-172.164
-174.951
-176.863
-177.921
-178.15
-177.577
-176.232
-174.15
-171.365
-167.915
-163.84
-159.181
-153.98
-148.281
-142.129
-135.568
-128.643
-121.398
-113.877
-106.125
-98.183
-90.093
-81.896
-73.631
-65.337
-57.052
-48.811
-40.648
-32.597
-24.689
-16.951
-9.413
-2.097
4.971
11.772
18.285
24.495
30.384
35.939
41.149
46.002
50.492
54.61
58.354
61.718
64.702
67.305
69.528
71.372
72.841
73.936
74.662
75.024
75.026
74.673
73.973
72.933
71.56
69.863
67.851
65.533
62.917
60.014
56.832
53.382
49.673
45.714
41.515
37.087
32.44
27.584
22.53
17.287
11.866
6.277
0.53
-5.366
-11.402
-17.569
-23.855
-30.252
-36.749
-43.334
-49.996
-56.723
-63.502
-70.319
-77.162
-84.018
-90.873
-97.714
-104.527
-111.3
-118.017
-124.665
-131.228
-137.691
-144.04
-150.26
-156.336
-162.254
-168
-173.561
-178.924
-184.078
-189.012
-193.714
-198.173
-202.379
-206.322
-209.993
-213.386
-216.495
-219.313
-221.839
-224.074
-226.024
-227.697
-229.099
-230.238
-231.126
-231.774
-232.199
-232.412
-232.423
-232.241
-231.877
-231.347
-230.67
-229.863
-228.941
-227.919
-226.811
-225.637
-224.41
-223.149
-221.863
-220.554
-219.227
-217.896
-216.583
-215.328
-214.163
-213.1
-212.152
-211.328
-210.633
-210.066
-209.61
-209.212
-208.829
-208.414
-207.92
-207.339
-206.667
-205.889
-205
-203.932
-202.595
-200.974
-199.077
-196.921
-194.589
-192.077
-189.331
-186.559
-184.107
-182.311
-181.56
-181.947
-183.288
-185.678
-189.389
-194.312
-199.951
-205.418
-209.464
-211.539
-211.816
-210.088
-205.983
-199.659
-191.996
-184.866
-180.928
-181.908
-188.301
-200.783
-219.731
-244.42
-272.696
-300.65
-323.112
-335.154
-332.701
-311.703
-268.43
-201.769
-114.203
-10.054
104.447
224.878
349.97
475.81
595.934
697.753
764.111
781.68
740.803
642.846
498.042
316.279
113.174
-96.005
-297.485
-470.739
-600.62
-682.891
-720.113
-724.596
-712.152
-688.461
-654.208
-612.462
-562.526
-510.234
-465.621
-428.683
-400.651
-381.171
-365.29
-354.79
-350.786
-351.743
-357.66
-365.699
-372.348
-375.944
-375.414
-370.731
-362.577
-351.599
-338.508
-324.076
-309.374
-295.579
-283.284
-272.635
-263.491
-255.404
-247.934
-240.758
-233.44
-225.493
-216.681
-206.915
-196.2
-184.696
-172.535
-159.789
-146.568
-132.986
-119.115
-105.046
-90.863
-76.632
-62.456
-48.42
-34.572
-20.961
-7.609
5.477
18.292
30.848
43.178
55.303
67.235
78.983
90.553
101.959
113.229
124.387
135.462
146.475
157.445
168.392
179.333
190.278
201.229
212.186
223.142
234.094
245.041
255.98
266.906
277.811
288.682
299.506
310.271
320.954
331.534
341.984
352.273
362.372
372.25
381.874
391.208
400.217
408.865
417.114
424.929
432.271
439.105
445.391
451.096
456.184
460.623
464.381
467.429
469.74
471.291
472.06
472.029
471.186
469.519
467.02
463.687
459.521
454.525
448.708
442.082
434.662
426.469
417.525
407.859
397.501
386.483
374.842
362.617
349.848
336.58
322.857
308.724
294.229
279.422
264.352
249.068
233.621
218.063
202.442
186.808
171.211
155.698
140.316
125.109
110.12
95.392
80.962
66.869
53.148
39.832
26.952
14.536
2.61
-8.801
-19.676
-29.994
-39.739
-48.895
-57.447
-65.386
-72.7
-79.381
-85.424
-90.823
-95.574
-99.677
-103.131
-105.938
-108.1
-109.622
-110.509
-110.768
-110.406
-109.433
-107.86
-105.696
-102.954
-99.648
-95.792
-91.401
-86.49
-81.079
-75.184
-68.827
-62.026
-54.805
-47.186
-39.194
-30.855
-22.196
-13.245
-4.032
5.411
15.053
24.86
34.796
44.827
54.915
65.024
75.115
85.15
95.091
104.897
114.531
123.952
133.123
142.004
150.558
158.748
166.538
173.893
180.78
187.168
193.025
198.324
203.04
207.149
210.629
213.462
215.634
217.13
217.942
218.063
217.49
216.223
214.265
211.624
208.31
204.336
199.718
194.475
188.629
182.206
175.233
167.74
159.761
151.328
142.48
133.255
123.693
113.836
103.726
93.406
82.919
72.31
61.621
50.896
40.176
29.503
18.917
8.458
-1.837
-11.931
-21.79
-31.382
-40.675
-49.643
-58.258
-66.499
-74.347
-81.783
-88.794
-95.367
-101.492
-107.163
-112.376
-117.13
-121.425
-125.265
-128.655
-131.607
-134.132
-136.246
-137.965
-139.305
-140.287
-140.932
-141.262
-141.299
-141.065
-140.583
-139.877
-138.97
-137.891
-136.666
-135.323
-133.891
-132.4
-130.878
-129.354
-127.852
-126.393
-124.996
-123.676
-122.445
-121.314
-120.294
-119.391
-118.616
-117.979
-117.487
-117.141
-116.939
-116.873
-116.938
-117.123
-117.409
-117.781
-118.23
-118.758
-119.389
-120.138
-121.004
-121.986
-123.07
-124.236
-125.466
-126.72
-127.922
-129
-129.881
-130.507
-130.876
-130.97
-130.754
-130.163
-129.107
-127.541
-125.482
-122.961
-119.971
-116.498
-112.548
-108.226
-103.777
-99.44
-95.413
-91.818
-88.74
-86.397
-85.003
-84.679
-85.391
-86.81
-88.48
-90.063
-91.197
-91.32
-90.001
-87.06
-82.632
-77.51
-72.986
-70.398
-71.255
-77.516
-89.118
-103.514
-118.288
-130.153
-140.215
-154.575
-172.889
-189.789
-190.63
-153.204
-69.955
54.593
204.09
352.86
489.614
611.803
718.745
810.15
872.865
886.609
835.534
712.327
521.306
282.722
26.265
-217.017
-414.796
-549.48
-621.053
-638.682
-622.626
-588.455
-544.066
-497.598
-451.318
-409.413
-376.104
-348.209
-324.239
-302.264
-281.54
-266.666
-259.631
-259.908
-265.238
-270.903
-273.76
-272.411
-266.43
-256.412
-242.97
-227.004
-209.846
-192.79
-177.178
-163.928
-153.306
-145.409
-140.112
-137.028
-135.75
-135.695
-136.086
-136.451
-136.575
-136.335
-135.786
-134.959
-133.805
-132.378
-130.802
-129.151
-127.49
-125.845
-124.183
-122.529
-120.952
-119.532
-118.373
-117.528
-116.998
-116.779
-116.849
-117.177
-117.734
-118.458
-119.262
-120.075
-120.831
-121.473
-121.951
-122.202
-122.151
-121.728
-120.865
-119.506
-117.606
-115.121
-112.015
-108.259
-103.833
-98.726
-92.936
-86.46
-79.297
-71.452
-62.936
-53.765
-43.964
-33.561
-22.589
-11.09
0.889
13.294
26.068
39.147
52.468
65.961
79.552
93.166
106.726
120.153
133.368
146.29
158.84
170.936
182.503
193.464
203.747
213.282
222.002
229.845
236.755
242.679
247.571
251.39
254.1
255.675
256.091
255.335
253.398
250.28
245.985
240.527
233.927
226.21
217.41
207.566
196.725
184.937
172.257
158.749
144.475
129.505
113.911
97.767
81.151
64.14
46.814
29.253
11.537
-6.253
-24.04
-41.747
-59.298
-76.62
-93.645
-110.306
-126.54
-142.29
-157.5
-172.12
-186.107
-199.418
-212.02
-223.88
-234.973
-245.279
-254.782
-263.47
-271.336
-278.38
-284.604
-290.013
-294.617
-298.43
-301.47
-303.754
-305.305
-306.149
-306.31
-305.816
-304.698
-302.986
-300.71
-297.902
-294.595
-290.819
-286.606
-281.985
-276.987
-271.64
-265.971
-260.005
-253.768
-247.283
-240.571
-233.653
-226.547
-219.27
-211.84
-204.27
-196.575
-188.766
-180.855
-172.853
-164.77
-156.615
-148.398
-140.128
-131.814
-123.464
-115.088
-106.694
-98.293
-89.894
-81.507
-73.143
-64.815
-56.533
-48.311
-40.162
-32.102
-24.145
-16.307
-8.605
-1.055
6.325
13.518
20.508
27.276
33.806
40.082
46.089
51.81
57.234
62.346
67.136
71.593
75.71
79.48
82.897
85.959
88.664
91.015
93.013
94.664
95.975
96.955
97.616
97.969
98.031
97.817
97.347
96.641
95.72
94.608
93.329
91.91
90.376
88.756
87.074
85.359
83.637
81.934
80.275
78.684
77.183
75.794
74.537
73.431
72.493
71.739
71.182
70.832
70.699
70.79
71.108
71.655
72.43
73.431
74.654
76.092
77.738
79.579
81.603
83.798
86.148
88.633
91.233
93.925
96.686
99.492
102.321
105.146
107.943
110.688
113.357
115.928
118.378
120.686
122.826
124.777
126.514
128.014
129.257
130.224
130.894
131.247
131.267
130.943
130.268
129.241
127.854
126.106
123.999
121.537
118.729
115.583
112.106
108.308
104.199
99.797
95.128
90.227
85.128
79.858
74.434
68.855
63.128
57.268
51.283
45.18
38.97
32.668
26.312
19.977
13.749
7.698
1.877
-3.708
-9.09
-14.266
-19.19
-23.773
-27.921
-31.603
-34.867
-37.695
-39.983
-41.732
-43.055
-44.336
-46.238
-49.147
-53.093
-58.031
-63.87
-70.446
-77.608
-84.636
-90.051
-92.85
-92.722
-89.76
-84.503
-77.45
-68.943
-60.315
-54.206
-52.832
-57.49
-68.829
-86.782
-111.315
-142.332
-176.829
-208.774
-232.707
-244.638
-244.881
-236.521
-218.398
-185.442
-129.059
-41.106
78.181
222.025
379.07
536.388
683.529
808.317
897.51
936.657
911.61
818.338
659.166
445.638
202.545
-44.345
-263.529
-426.136
-524.077
-562.053
-560.25
-546.235
-532.688
-521.798
-508.031
-481.776
-442.799
-396.726
-349.305
-306.472
-270.352
-240.62
-217.152
-198.791
-183.927
-171.281
-160.034
-149.893
-140.525
-130.97
-120.101
-107.474
-93.347
-78.389
-63.28
-48.416
-34.306
-21.966
-12.329
-5.824
-2.477
-1.828
-3.182
-6.042
-9.93
-14.244
-18.576
-22.666
-26.332
-29.607
-32.56
-35.179
-37.449
-39.298
-40.621
-41.397
-41.667
-41.535
-41.204
-40.844
-40.564
-40.465
-40.588
-40.942
-41.526
-42.281
-43.113
-43.949
-44.749
-45.519
-46.275
-46.99
-47.599
-48.003
-48.078
-47.72
-46.84
-45.339
-43.144
-40.201
-36.474
-31.961
-26.681
-20.643
-13.848
-6.29
2.038
11.126
20.952
31.488
42.697
54.534
66.949
79.879
93.256
107.017
121.096
135.43
149.958
164.611
179.316
194.001
208.588
222.999
237.155
250.975
264.376
277.281
289.614
301.304
312.282
322.484
331.848
340.32
347.848
354.388
359.899
364.348
367.705
369.948
371.064
371.041
369.877
367.576
364.148
359.612
353.991
347.315
339.619
330.945
321.337
310.845
299.525
287.433
274.629
261.179
247.148
232.604
217.618
202.262
186.606
170.72
154.676
138.541
122.385
106.27
90.261
74.416
58.794
43.447
28.428
13.782
-0.447
-14.219
-27.499
-40.256
-52.462
-64.097
-75.14
-85.578
-95.401
-104.601
-113.175
-121.125
-128.452
-135.163
-141.266
-146.772
-151.692
-156.042
-159.838
-163.095
-165.833
-168.07
-169.825
-171.118
-171.967
-172.391
-172.409
-172.039
-171.298
-170.201
-168.766
-167.007
-164.937
-162.571
-159.921
-156.997
-153.81
-150.37
-146.683
-142.758
-138.6
-134.215
-129.609
-124.786
-119.751
-114.509
-109.064
-103.422
-97.588
-91.567
-85.366
-78.99
-72.448
-65.746
-58.892
-51.897
-44.771
-37.524
-30.168
-22.716
-15.18
-7.574
0.088
7.791
15.522
23.265
31.007
38.732
46.425
54.072
61.657
69.165
76.581
83.892
91.083
98.14
105.05
111.803
118.385
124.787
130.998
137.009
142.811
148.396
153.758
158.889
163.785
168.439
172.849
177.012
180.924
184.584
187.989
191.138
194.03
196.663
199.038
201.151
203.002
204.589
205.912
206.97
207.762
208.288
208.548
208.543
208.274
207.743
206.952
205.904
204.602
203.05
201.255
199.221
196.956
194.468
191.764
188.855
185.752
182.469
179.018
175.411
171.665
167.797
163.823
159.764
155.637
151.462
147.261
143.056
138.871
134.729
130.653
126.668
122.797
119.064
115.491
112.098
108.899
105.907
103.135
100.595
98.295
96.241
94.436
92.888
91.603
90.588
89.842
89.359
89.13
89.145
89.393
89.861
90.53
91.377
92.377
93.512
94.77
96.127
97.552
98.994
100.392
101.696
102.863
103.856
104.633
105.159
105.408
105.378
105.1
104.597
103.881
102.952
101.801
100.445
98.926
97.296
95.61
93.896
92.15
90.366
88.529
86.579
84.435
81.98
79.029
75.408
70.966
65.555
59.054
51.345
42.213
31.368
18.634
4.035
-12.2
-29.647
-47.857
-66.382
-84.57
-101.506
-116.425
-129.122
-140.001
-149.878
-159.876
-171.136
-184.722
-202.069
-222.981
-244.948
-265.458
-282.486
-297.506
-314.186
-330.916
-339.436
-324.082
-269.731
-174.473
-47.842
91.743
227.73
358.04
486.181
612.797
730.481
817.088
847.144
808.522
702.225
542.016
351.603
150.122
-46.28
-218.379
-351.535
-436.93
-472.774
-471.711
-452.551
-427.181
-401.636
-374.485
-339.386
-296.31
-249.433
-203.405
-163.912
-133.61
-112.296
-99.141
-92.529
-90.619
-91.718
-94.495
-97.739
-99.942
-99.978
-97.45
-92.331
-85.127
-76.706
-67.613
-58.473
-50.312
-43.844
-39.339
-36.861
-36.084
-36.524
-37.909
-39.889
-41.955
-43.802
-45.253
-46.215
-46.775
-47.018
-46.952
-46.636
-46.14
-45.489
-44.732
-43.904
-43.019
-42.127
-41.268
-40.453
-39.693
-38.973
-38.259
-37.52
-36.709
-35.767
-34.648
-33.304
-31.698
-29.803
-27.587
-25.01
-22.036
-18.623
-14.737
-10.353
-5.45
-0.014
5.962
12.478
19.522
27.074
35.116
43.625
52.579
61.95
71.708
81.814
92.228
102.905
113.795
124.844
135.992
147.177
158.334
169.399
180.307
190.992
201.388
211.429
221.051
230.191
238.786
246.776
254.105
260.715
266.556
271.58
275.744
279.012
281.349
282.728
283.128
282.533
280.933
278.324
274.709
270.095
264.498
257.938
250.441
242.04
232.774
222.685
211.824
200.244
188.003
175.161
161.782
147.934
133.685
119.105
104.266
89.241
74.101
58.92
43.77
28.723
13.848
-0.787
-15.117
-29.079
-42.615
-55.67
-68.191
-80.133
-91.451
-102.107
-112.068
-121.304
-129.793
-137.514
-144.455
-150.606
-155.963
-160.528
-164.306
-167.305
-169.54
-171.028
-171.788
-171.846
-171.227
-169.96
-168.079
-165.616
-162.61
-159.096
-155.117
-150.711
-145.922
-140.791
-135.362
-129.677
-123.778
-117.708
-111.508
-105.22
-98.882
-92.534
-86.214
-79.957
-73.797
-67.767
-61.899
-56.22
-50.759
-45.541
-40.589
-35.926
-31.572
-27.547
-23.867
-20.548
-17.606
-15.053
-12.899
-11.155
-9.828
-8.924
-8.447
-8.4
-8.784
-9.598
-10.841
-12.508
-14.593
-17.09
-19.991
-23.284
-26.957
-30.998
-35.39
-40.116
-45.16
-50.501
-56.118
-61.99
-68.092
-74.401
-80.891
-87.534
-94.303
-101.167
-108.097
-115.062
-122.028
-128.966
-135.84
-142.619
-149.27
-155.761
-162.06
-168.137
-173.96
-179.501
-184.731
-189.624
-194.156
-198.302
-202.043
-205.358
-208.231
-210.649
-212.601
-214.078
-215.074
-215.586
-215.612
-215.155
-214.218
-212.81
-210.936
-208.609
-205.842
-202.651
-199.055
-195.075
-190.731
-186.048
-181.05
-175.766
-170.221
-164.443
-158.459
-152.299
-145.989
-139.559
-133.037
-126.451
-119.825
-113.186
-106.559
-99.969
-93.437
-86.981
-80.619
-74.365
-68.235
-62.241
-56.392
-50.697
-45.164
-39.801
-34.619
-29.627
-24.831
-20.234
-15.84
-11.653
-7.674
-3.899
-0.318
3.079
6.298
9.341
12.212
14.913
17.452
19.835
22.061
24.133
26.051
27.827
29.479
31.015
32.434
33.719
34.842
35.781
36.531
37.081
37.422
37.552
37.479
37.237
36.89
36.495
36.092
35.704
35.342
35.037
34.839
34.795
34.958
35.354
35.979
36.84
37.927
39.169
40.468
41.682
42.598
43.025
42.783
41.648
39.442
36.017
31.185
24.737
16.536
6.547
-5.048
-17.806
-31.233
-44.883
-58.217
-70.527
-81.137
-89.673
-96.4
-102.329
-108.621
-116.007
-125.22
-137.38
-153.41
-173.61
-195.548
-213.879
-223.668
-222.134
-211.487
-196.068
-176.401
-147.927
-98.489
-16.081
103.625
256.874
426.591
592.261
735.309
837.566
891.847
893.069
837.355
729.401
570.961
370.78
148.717
-75.052
-272.276
-418.503
-507.415
-543.42
-545.36
-536.899
-528.712
-522.808
-513.777
-493.187
-461.164
-422.549
-382.09
-344.791
-312.269
-284.241
-261.576
-244.29
-231.313
-221.733
-214.988
-210.579
-208.244
-207.102
-205.039
-200.664
-193.757
-184.429
-173.041
-159.944
-145.245
-129.581
-114.349
-100.43
-88.136
-77.499
-68.088
-59.56
-51.808
-44.518
-37.196
-29.563
-21.468
-12.896
-4.069
4.856
13.8
22.652
31.322
39.732
47.787
55.413
62.548
69.138
75.153
80.578
85.406
89.649
93.33
96.489
99.197
101.52
103.516
105.237
106.722
108.02
109.195
110.312
111.439
112.637
113.959
115.461
117.198
119.218
121.562
124.258
127.327
130.789
134.666
138.975
143.731
148.939
154.6
160.709
167.258
174.229
181.6
189.338
197.407
205.763
214.364
223.158
232.092
241.108
250.147
259.145
268.037
276.758
285.24
293.413
301.209
308.561
315.403
321.673
327.307
332.248
336.441
339.835
342.386
344.053
344.798
344.592
343.411
341.234
338.049
333.85
328.635
322.411
315.188
306.985
297.827
287.743
276.768
264.941
252.308
238.917
224.82
210.073
194.736
178.869
162.536
145.803
128.737
111.404
93.871
76.207
58.478
40.748
23.082
5.541
-11.816
-28.931
-45.752
-62.226
-78.305
-93.946
-109.107
-123.749
-137.839
-151.347
-164.244
-176.509
-188.12
-199.061
-209.32
-218.885
-227.749
-235.908
-243.36
-250.105
-256.146
-261.488
-266.137
-270.102
-273.394
-276.024
-278.004
-279.348
-280.07
-280.183
-279.703
-278.645
-277.022
-274.85
-272.143
-268.917
-265.185
-260.964
-256.268
-251.112
-245.512
-239.482
-233.037
-226.194
-218.967
-211.373
-203.429
-195.152
-186.562
-177.676
-168.517
-159.104
-149.46
-139.606
-129.567
-119.366
-109.028
-98.579
-88.046
-77.458
-66.845
-56.237
-45.667
-35.169
-24.778
-14.529
-4.459
5.397
15.002
24.321
33.318
41.959
50.207
58.029
65.39
72.258
78.601
84.39
89.597
94.198
98.169
101.491
104.148
106.124
107.409
107.993
107.869
107.033
105.485
103.227
100.265
96.609
92.274
87.279
81.649
75.411
68.596
61.24
53.383
45.067
36.333
27.224
17.783
8.058
-1.901
-12.045
-22.325
-32.688
-43.076
-53.429
-63.682
-73.776
-83.653
-93.26
-102.545
-111.457
-119.944
-127.966
-135.489
-142.474
-148.883
-154.67
-159.775
-164.164
-167.828
-170.773
-173.026
-174.616
-175.563
-175.908
-175.713
-175.019
-173.852
-172.208
-170.036
-167.325
-164.092
-160.379
-156.277
-151.837
-147.072
-141.991
-136.594
-130.872
-124.842
-118.47
-111.668
-104.417
-96.758
-88.818
-80.838
-73.008
-65.447
-58.243
-51.428
-45.068
-39.272
-34.116
-29.641
-25.882
-22.868
-20.706
-19.6
-19.661
-20.891
-23.172
-26.231
-29.846
-33.895
-38.287
-42.963
-47.841
-52.817
-57.886
-63.16
-68.788
-74.872
-81.372
-88.136
-95.106
-102.363
-110.091
-118.555
-127.899
-138.185
-149.556
-162.081
-175.714
-190.192
-204.863
-218.92
-231.673
-242.47
-250.612
-255.688
-257.593
-256.757
-254.317
-251.363
-248.899
-248.011
-249.795
-255.297
-263.334
-270.078
-271.803
-264.619
-249.031
-230.345
-208.064
-178.881
-134.383
-59.289
50.149
190.326
352.847
519.491
677.927
816.451
919.559
974.268
965.39
885.5
738.144
536.147
303.87
67.312
-147.544
-318.357
-435.713
-502.287
-528.667
-529.902
-516.943
-489.861
-450.115
-402.332
-351.48
-310.956
-286.532
-273.48
-268.771
-264.89
-258.733
-255.505
-256.66
-262.336
-271.469
-279.226
-282.812
-282.027
-276.946
-268.49
-257.893
-246.012
-233.838
-222.723
-213.562
-206.562
-201.797
-199.099
-198.031
-198.244
-199.217
-200.156
-200.565
-200.219
-198.969
-196.863
-193.952
-190.188
-185.624
-180.391
-174.563
-168.221
-161.415
-154.137
-146.442
-138.429
-130.207
-121.917
-113.655
-105.468
-97.396
-89.466
-81.687
-74.075
-66.617
-59.274
-52.023
-44.849
-37.737
-30.684
-23.672
-16.672
-9.653
-2.585
4.557
11.789
19.126
26.583
34.171
41.895
49.758
57.755
65.887
74.158
82.572
91.13
99.832
108.675
117.656
126.771
136.012
145.367
154.824
164.365
173.973
183.627
193.307
202.987
212.643
222.245
231.767
241.179
250.45
259.548
268.44
277.095
285.479
293.561
301.307
308.685
315.664
322.212
328.3
333.9
338.984
343.525
347.497
350.88
353.65
355.789
357.279
358.104
358.254
357.717
356.487
354.562
351.94
348.625
344.622
339.94
334.592
328.592
321.958
314.71
306.87
298.464
289.518
280.063
270.128
259.747
248.954
237.784
226.275
214.463
202.389
190.09
177.608
164.983
152.257
139.47
126.664
113.881
101.162
88.547
76.078
63.794
51.733
39.932
28.428
17.255
6.445
-3.97
-13.963
-23.505
-32.573
-41.142
-49.192
-56.705
-63.662
-70.05
-75.855
-81.065
-85.673
-89.67
-93.051
-95.813
-97.955
-99.477
-100.38
-100.67
-100.353
-99.437
-97.933
-95.853
-93.212
-90.026
-86.313
-82.094
-77.391
-72.227
-66.629
-60.622
-54.236
-47.499
-40.442
-33.098
-25.498
-17.678
-9.672
-1.516
6.753
15.099
23.484
31.869
40.216
48.485
56.639
64.638
72.444
80.018
87.322
94.32
100.976
107.255
113.125
118.554
123.513
127.976
131.916
135.313
138.148
140.403
142.065
143.122
143.568
143.399
142.614
141.216
139.211
136.608
133.421
129.667
125.367
120.543
115.22
109.428
103.199
96.568
89.572
82.25
74.643
66.795
58.752
50.56
42.266
33.917
25.561
17.244
9.014
0.917
-7.003
-14.704
-22.146
-29.291
-36.102
-42.547
-48.597
-54.228
-59.419
-64.152
-68.414
-72.197
-75.501
-78.331
-80.693
-82.597
-84.056
-85.091
-85.722
-85.976
-85.873
-85.44
-84.707
-83.708
-82.484
-81.075
-79.522
-77.864
-76.144
-74.405
-72.691
-71.035
-69.464
-68.006
-66.691
-65.56
-64.662
-64.036
-63.704
-63.686
-63.998
-64.638
-65.602
-66.86
-68.353
-70.034
-71.863
-73.816
-75.882
-78.032
-80.213
-82.366
-84.428
-86.354
-88.118
-89.672
-90.98
-92.07
-93
-93.885
-94.868
-96.018
-97.384
-99.041
-101.077
-103.601
-106.716
-110.461
-114.905
-120.206
-126.454
-133.613
-141.356
-149.029
-155.966
-161.571
-165.184
-166.092
-163.771
-158.103
-149.857
-140.509
-131.373
-123.854
-119.45
-119.227
-124.124
-132.981
-141.392
-146.233
-145.588
-138.749
-128.083
-109.133
-71.364
-6.993
89.89
214.49
351.582
490.382
625.232
753.48
872.995
972.491
1031.033
1029.447
959.874
826.497
644.512
434.922
214.788
0.575
-188.165
-336.656
-436.451
-487.73
-504.245
-502.999
-493.888
-481.125
-462.377
-432.945
-394.569
-352.309
-311.313
-276.851
-250.831
-232.835
-222.023
-216.636
-214.454
-213.479
-212.154
-209.232
-204.003
-196.054
-185.221
-171.84
-156.766
-141.062
-125.723
-111.711
-99.558
-89.512
-81.705
-75.962
-71.93
-69.155
-67.001
-64.766
-62.02
-58.528
-54.167
-48.97
-42.944
-36.088
-28.512
-20.367
-11.77
-2.812
6.456
16.015
25.789
35.666
45.523
55.227
64.7
73.906
82.817
91.426
99.732
107.742
115.496
123.047
130.435
137.686
144.823
151.86
158.829
165.767
172.708
179.684
186.721
193.835
201.041
208.351
215.768
223.292
230.917
238.633
246.431
254.305
262.245
270.243
278.286
286.357
294.438
302.508
310.544
318.518
326.4
334.157
341.755
349.16
356.333
363.239
369.839
376.095
381.969
387.425
392.425
396.933
400.915
404.338
407.173
409.389
410.962
411.867
412.083
411.593
410.383
408.441
405.759
402.332
398.159
393.243
387.588
381.204
374.104
366.303
357.822
348.685
338.92
328.557
317.631
306.18
294.242
281.861
269.08
255.947
242.507
228.809
214.903
200.839
186.665
172.432
158.189
143.982
129.861
115.87
102.054
88.455
75.113
62.067
49.353
37.005
25.055
13.532
2.462
-8.131
-18.225
-27.802
-36.847
-45.348
-53.296
-60.684
-67.511
-73.776
-79.482
-84.636
-89.247
-93.324
-96.883
-99.939
-102.509
-104.613
-106.271
-107.507
-108.343
-108.803
-108.912
-108.697
-108.182
-107.394
-106.358
-105.102
-103.65
-102.029
-100.264
-98.381
-96.405
-94.36
-92.27
-90.158
-88.047
-85.959
-83.913
-81.928
-80.022
-78.212
-76.511
-74.934
-73.492
-72.195
-71.054
-70.075
-69.265
-68.63
-68.173
-67.897
-67.804
-67.894
-68.168
-68.622
-69.256
-70.066
-71.048
-72.199
-73.514
-74.985
-76.607
-78.371
-80.27
-82.293
-84.429
-86.666
-88.99
-91.389
-93.85
-96.359
-98.9
-101.461
-104.025
-106.58
-109.11
-111.602
-114.038
-116.405
-118.687
-120.871
-122.943
-124.889
-126.696
-128.353
-129.848
-131.172
-132.315
-133.269
-134.024
-134.573
-134.911
-135.032
-134.933
-134.611
-134.066
-133.301
-132.323
-131.143
-129.772
-128.223
-126.509
-124.646
-122.651
-120.541
-118.33
-116.028
-113.648
-111.21
-108.735
-106.245
-103.761
-101.302
-98.89
-96.548
-94.298
-92.157
-90.137
-88.242
-86.482
-84.879
-83.462
-82.272
-81.338
-80.679
-80.308
-80.237
-80.467
-80.992
-81.779
-82.773
-83.926
-85.205
-86.582
-88.044
-89.562
-91.089
-92.574
-93.96
-95.192
-96.243
-97.107
-97.787
-98.322
-98.769
-99.195
-99.737
-100.539
-101.747
-103.518
-105.978
-109.217
-113.386
-118.706
-125.301
-133.157
-142.037
-151.381
-160.609
-169.238
-176.694
-182.299
-185.565
-186.371
-185.303
-183.817
-183.482
-185.58
-191.257
-201.449
-216.567
-236.177
-258.216
-279.006
-294.484
-300.347
-292.335
-266.761
-220.07
-151.45
-64.708
35.333
143.144
255.549
375.113
500.226
621.81
725.607
789.375
794.576
737.078
619.434
452.814
258.111
52.04
-144.551
-306.35
-422.988
-491.042
-518.154
-526.713
-529.394
-530.605
-529.266
-515.746
-487.396
-448.739
-405.163
-363.247
-326.133
-293.796
-266.599
-244.86
-228.361
-216.397
-207.798
-201.675
-197.536
-194.749
-192.067
-188.066
-182.017
-173.872
-164.017
-152.938
-140.92
-128.394
-116.272
-105.403
-96.179
-88.685
-82.618
-77.493
-73.022
-68.877
-64.57
-59.792
-54.38
-48.242
-41.485
-34.261
-26.639
-18.722
-10.622
-2.379
5.937
14.258
22.541
30.701
38.67
46.42
53.923
61.173
68.187
74.976
81.574
88.04
94.42
100.749
107.058
113.362
119.687
126.069
132.543
139.143
145.899
152.834
159.97
167.328
174.918
182.745
190.804
199.084
207.579
216.279
225.174
234.251
243.494
252.881
262.39
271.995
281.666
291.367
301.06
310.702
320.249
329.656
338.876
347.86
356.556
364.913
372.879
380.402
387.429
393.91
399.791
405.024
409.56
413.353
416.359
418.537
419.849
420.259
419.739
418.261
415.804
412.35
407.886
402.406
395.906
388.39
379.863
370.338
359.832
348.368
335.973
322.681
308.527
293.554
277.809
261.34
244.203
226.456
208.157
189.371
170.163
150.601
130.754
110.693
90.49
70.217
49.946
29.749
9.699
-10.136
-29.687
-48.887
-67.674
-85.985
-103.763
-120.952
-137.502
-153.365
-168.495
-182.853
-196.402
-209.11
-220.948
-231.892
-241.924
-251.029
-259.196
-266.419
-272.696
-278.03
-282.427
-285.898
-288.456
-290.12
-290.91
-290.852
-289.972
-288.303
-285.876
-282.729
-278.899
-274.426
-269.35
-263.714
-257.56
-250.932
-243.874
-236.43
-228.646
-220.565
-212.233
-203.694
-194.994
-186.174
-177.279
-168.35
-159.428
-150.553
-141.764
-133.097
-124.589
-116.275
-108.187
-100.357
-92.815
-85.589
-78.705
-72.187
-66.058
-60.336
-55.04
-50.186
-45.787
-41.855
-38.402
-35.435
-32.963
-30.991
-29.522
-28.558
-28.098
-28.141
-28.681
-29.709
-31.216
-33.19
-35.618
-38.483
-41.769
-45.456
-49.522
-53.943
-58.695
-63.75
-69.077
-74.645
-80.422
-86.374
-92.466
-98.664
-104.931
-111.234
-117.536
-123.803
-129.999
-136.089
-142.036
-147.805
-153.361
-158.669
-163.697
-168.413
-172.788
-176.798
-180.422
-183.643
-186.446
-188.815
-190.741
-192.219
-193.243
-193.813
-193.925
-193.573
-192.761
-191.497
-189.793
-187.661
-185.114
-182.162
-178.826
-175.13
-171.098
-166.76
-162.132
-157.228
-152.068
-146.683
-141.115
-135.423
-129.653
-123.845
-118.042
-112.292
-106.635
-101.11
-95.725
-90.455
-85.274
-80.153
-75.079
-70.067
-65.138
-60.301
-55.541
-50.803
-46.036
-41.217
-36.357
-31.487
-26.605
-21.663
-16.742
-12.127
-8.271
-5.659
-4.531
-4.833
-6.534
-9.759
-14.512
-20.429
-26.517
-31.51
-34.694
-36.04
-35.774
-33.971
-30.739
-26.746
-23.876
-24.684
-30.928
-43.316
-62.052
-86.96
-117.442
-152.161
-186.495
-214.584
-232.955
-237.54
-227.601
-203.096
-158.371
-92.361
-4.25
106.236
230.565
365.623
507.021
643.11
764.112
850.355
882.8
857.899
778.228
659.391
520.219
365.555
200.928
31.245
-134.564
-272.642
-367.086
-413.359
-417.613
-401.463
-379.706
-357.107
-333.795
-303.158
-263.862
-220.422
-176.921
-137.833
-105.539
-80.359
-62.572
-52.154
-48.323
-49.771
-55.596
-65.245
-77.787
-91.933
-106.105
-118.545
-128.432
-135.838
-140.736
-143.148
-143.367
-141.807
-139.286
-136.892
-135.141
-134.073
-133.656
-133.7
-134.037
-134.559
-134.952
-134.779
-133.817
-132.007
-129.387
-126.104
-122.238
-117.818
-112.919
-107.638
-102.057
-96.219
-90.12
-83.721
-76.993
-69.919
-62.486
-54.687
-46.497
-37.9
-28.884
-19.439
-9.566
0.732
11.459
22.615
34.206
46.23
58.68
71.544
84.808
98.456
112.469
126.829
141.505
156.47
171.695
187.151
202.807
218.633
234.592
250.648
266.764
282.898
299.006
315.044
330.964
346.718
362.259
377.537
392.506
407.118
421.327
435.087
448.353
461.081
473.229
484.755
495.618
505.781
515.207
523.862
531.716
538.74
544.908
550.198
554.589
558.066
560.615
562.226
562.894
562.615
561.389
559.222
556.12
552.096
547.164
541.341
534.651
527.116
518.765
509.625
499.729
489.112
477.808
465.855
453.293
440.163
426.505
412.362
397.78
382.802
367.473
351.837
335.94
319.827
303.542
287.129
270.631
254.092
237.551
221.049
204.626
188.318
172.161
156.19
140.437
124.932
109.704
94.781
80.189
65.949
52.086
38.618
25.564
12.94
0.761
-10.961
-22.214
-32.99
-43.28
-53.08
-62.384
-71.191
-79.5
-87.311
-94.626
-101.45
-107.788
-113.646
-119.033
-123.958
-128.432
-132.466
-136.073
-139.266
-142.059
-144.469
-146.509
-148.198
-149.552
-150.59
-151.331
-151.794
-151.998
-151.965
-151.715
-151.267
-150.644
-149.866
-148.954
-147.927
-146.808
-145.616
-144.372
-143.093
-141.8
-140.509
-139.239
-138.003
-136.817
-135.693
-134.644
-133.679
-132.809
-132.041
-131.382
-130.838
-130.413
-130.112
-129.934
-129.882
-129.952
-130.141
-130.446
-130.858
-131.372
-131.978
-132.666
-133.426
-134.245
-135.113
-136.016
-136.94
-137.87
-138.791
-139.687
-140.543
-141.343
-142.072
-142.715
-143.259
-143.692
-144.003
-144.183
-144.222
-144.113
-143.851
-143.429
-142.846
-142.098
-141.187
-140.114
-138.881
-137.497
-135.969
-134.308
-132.529
-130.651
-128.69
-126.672
-124.619
-122.551
-120.488
-118.449
-116.449
-114.507
-112.641
-110.864
-109.193
-107.648
-106.249
-105.022
-103.985
-103.146
-102.506
-102.06
-101.794
-101.708
-101.798
-102.065
-102.531
-103.21
-104.11
-105.247
-106.624
-108.226
-110.023
-111.955
-113.95
-115.95
-117.925
-119.871
-121.782
-123.627
-125.366
-126.921
-128.201
-129.176
-129.801
-129.988
-129.751
-129.144
-128.352
-127.797
-127.766
-128.313
-129.475
-131.193
-133.251
-135.505
-137.516
-138.406
-137.799
-135.667
-131.986
-127.075
-121.262
-114.634
-107.693
-101.459
-96.381
-92.845
-91.447
-92.386
-96.013
-102.757
-112.693
-125.552
-140.918
-157.474
-171.84
-179.418
-176.01
-158.766
-129.061
-90.297
-43.403
12.691
84.872
180.781
302.531
447.902
604.683
755.655
881.434
961.089
980.924
933.059
821.422
659.841
462.737
248.737
31.522
-176.659
-359.149
-504.831
-602.961
-649.722
-650.454
-611.513
-546.09
-468.78
-394.5
-337.3
-301.684
-284.148
-274.421
-263.138
-247.681
-230.362
-218.006
-214.918
-220.122
-230.888
-242.468
-250.746
-254.647
-254.126
-249.571
-241.913
-231.953
-220.292
-208.056
-196.748
-187.168
-179.683
-174.388
-170.871
-168.68
-167.431
-166.554
-165.418
-163.681
-161.185
-157.894
-153.937
-149.403
-144.365
-138.937
-133.229
-127.313
-121.226
-115
-108.665
-102.286
-95.964
-89.768
-83.738
-77.898
-72.254
-66.797
-61.516
-56.376
-51.312
-46.275
-41.225
-36.124
-30.936
-25.615
-20.103
-14.351
-8.317
-1.962
4.759
11.891
19.488
27.581
36.178
45.275
54.862
64.926
75.44
86.35
97.569
109.01
120.613
132.345
144.204
156.171
168.218
180.313
192.422
204.553
216.726
228.94
241.174
253.414
265.673
278.028
290.613
303.527
316.791
330.361
344.137
358.027
371.919
385.669
399.087
411.909
423.892
434.853
444.655
453.161
460.195
465.509
468.798
469.828
468.47
464.67
458.437
449.785
438.785
425.586
410.435
393.665
375.563
356.346
336.186
315.256
293.772
272.01
250.284
228.832
207.837
187.446
167.777
148.952
131.042
114.042
97.864
82.369
67.467
53.128
39.353
26.146
13.49
1.338
-10.354
-21.587
-32.358
-42.665
-52.51
-61.912
-70.862
-79.316
-87.197
-94.418
-100.928
-106.707
-111.753
-116.073
-119.675
-122.572
-124.795
-126.394
-127.416
-127.898
-127.875
-127.373
-126.431
-125.098
-123.428
-121.473
-119.279
-116.884
-114.325
-111.637
-108.848
-105.981
-103.052
-100.068
-97.039
-93.977
-90.892
-87.794
-84.687
-81.575
-78.46
-75.344
-72.224
-69.095
-65.948
-62.772
-59.556
-56.287
-52.952
-49.537
-46.027
-42.408
-38.667
-34.792
-30.77
-26.591
-22.244
-17.72
-13.014
-8.121
-3.038
2.234
7.692
13.332
19.143
25.116
31.237
37.491
43.861
50.327
56.869
63.464
70.088
76.716
83.322
89.877
96.353
102.718
108.942
114.994
120.846
126.465
131.824
136.893
141.647
146.062
150.115
153.785
157.054
159.904
162.322
164.297
165.821
166.889
167.499
167.652
167.354
166.615
165.444
163.858
161.872
159.507
156.784
153.73
150.37
146.732
142.845
138.739
134.447
130.004
125.442
120.794
116.093
111.372
106.664
101.998
97.402
92.897
88.505
84.244
80.135
76.192
72.427
68.851
65.473
62.307
59.363
56.646
54.153
51.877
49.81
47.945
46.27
44.769
43.425
42.218
41.136
40.176
39.325
38.566
37.865
37.175
36.458
35.689
34.839
33.887
32.818
31.621
30.314
28.941
27.535
26.123
24.712
23.294
21.884
20.514
19.221
18.059
17.055
16.221
15.587
15.151
14.862
14.644
14.367
13.882
13.075
11.821
9.973
7.404
3.976
-0.401
-5.837
-12.554
-20.694
-30.24
-40.968
-52.319
-63.653
-74.47
-84.112
-91.723
-96.708
-98.862
-98.765
-97.907
-97.721
-99.487
-104.705
-114.802
-130.808
-151.453
-172.419
-188.884
-197.27
-198.327
-195.426
-187.193
-166.817
-121.957
-40.556
78.626
227.798
392.503
556.599
709.239
838.453
931.067
974.606
955.459
871.587
730.275
541.011
322.418
91.87
-132.981
-326.173
-470.142
-558.325
-593.836
-595.625
-583.39
-566.168
-546.915
-521.942
-485.929
-440.853
-392.522
-346.659
-309.128
-283.085
-268.317
-263.481
-266.734
-275.695
-288.031
-302.068
-315.776
-326.635
-333.384
-335.687
-333.625
-328.164
-320.429
-311.13
-301.354
-292.552
-285.468
-280.369
-277.231
-275.496
-274.588
-274.151
-273.697
-272.665
-270.772
-267.876
-263.949
-259.154
-253.617
-247.405
-240.624
-233.367
-225.691
-217.667
-209.363
-200.84
-192.198
-183.525
-174.873
-166.29
-157.796
-149.402
-141.11
-132.909
-124.77
-116.67
-108.597
-100.548
-92.524
-84.518
-76.513
-68.488
-60.419
-52.29
-44.089
-35.804
-27.426
-18.954
-10.391
-1.748
6.959
15.717
24.514
33.342
42.187
51.035
59.867
68.663
77.405
86.066
94.62
103.036
111.281
119.321
127.125
134.658
141.885
148.772
155.284
161.387
167.047
172.232
176.91
181.049
184.619
187.594
189.949
191.66
192.707
193.073
192.742
191.704
189.952
187.481
184.29
180.381
175.761
170.439
164.429
157.748
150.416
142.457
133.899
124.774
115.114
104.958
94.344
83.314
71.912
60.182
48.17
35.925
23.492
10.921
-1.74
-14.444
-27.143
-39.79
-52.339
-64.746
-76.969
-88.967
-100.701
-112.134
-123.233
-133.965
-144.301
-154.215
-163.683
-172.685
-181.202
-189.22
-196.726
-203.713
-210.173
-216.105
-221.507
-226.382
-230.734
-234.572
-237.904
-240.742
-243.099
-244.991
-246.434
-247.447
-248.047
-248.257
-248.096
-247.586
-246.748
-245.605
-244.179
-242.491
-240.563
-238.417
-236.075
-233.556
-230.883
-228.073
-225.147
-222.123
-219.018
-215.848
-212.631
-209.38
-206.11
-202.832
-199.561
-196.306
-193.077
-189.885
-186.738
-183.643
-180.607
-177.634
-174.732
-171.903
-169.151
-166.48
-163.892
-161.391
-158.978
-156.657
-154.429
-152.297
-150.261
-148.325
-146.488
-144.752
-143.118
-141.585
-140.155
-138.827
-137.602
-136.48
-135.46
-134.542
-133.724
-133.006
-132.385
-131.858
-131.424
-131.08
-130.822
-130.646
-130.551
-130.533
-130.589
-130.714
-130.905
-131.156
-131.464
-131.821
-132.22
-132.654
-133.113
-133.59
-134.076
-134.562
-135.038
-135.495
-135.922
-136.309
-136.648
-136.926
-137.132
-137.256
-137.287
-137.214
-137.029
-136.722
-136.285
-135.71
-134.99
-134.121
-133.096
-131.912
-130.563
-129.046
-127.358
-125.499
-123.468
-121.267
-118.897
-116.364
-113.679
-110.853
-107.902
-104.838
-101.676
-98.434
-95.13
-91.782
-88.405
-85.01
-81.611
-78.228
-74.882
-71.595
-68.387
-65.277
-62.284
-59.431
-56.74
-54.226
-51.899
-49.76
-47.818
-46.09
-44.601
-43.387
-42.473
-41.867
-41.579
-41.615
-41.971
-42.632
-43.56
-44.686
-45.957
-47.333
-48.781
-50.286
-51.811
-53.3
-54.701
-55.956
-57.016
