Name,Aleksandre Beruashvili
Date of Birth,"Dec 20, 1998"
Recorded Date,2024-05-16 22:59:45 +0400
Classification,Sinus Rhythm
Symptoms,
Software Version,1.90
Device,"Watch7,2"
Sample Rate,512 hertz


Lead,Lead I
Unit,µV

122.027
175.946
206.405
211.083
199.859
181.289
164.921
153.826
141.841
126.629
107.721
84.87
60.869
36.49
10.101
-17.12
-40.906
-58.394
-66.602
-64.622
-57.324
-45.742
-24.783
13.041
79.938
185.344
327.16
497.991
685.765
872.779
1044.41
1183.761
1271.996
1294.828
1240.547
1108.115
904.72
645.677
358.937
72.781
-180.328
-370.647
-489.789
-538.702
-531.453
-496.53
-451.188
-410.197
-387.429
-379.693
-384.234
-395.745
-398.949
-388.755
-365.957
-333.651
-302.464
-278.521
-261.43
-249.438
-239.752
-231.539
-225.863
-223.519
-223.988
-225.483
-227.079
-228.777
-230.48
-232.266
-234.122
-235.944
-238.526
-243.29
-250.942
-261.626
-275.194
-291.143
-309.125
-328.864
-349.678
-370.559
-390.64
-409.281
-426.086
-440.961
-453.809
-464.484
-472.921
-479.126
-483.165
-485.111
-485.005
-482.816
-478.501
-472.099
-463.756
-453.741
-442.368
-429.932
-416.718
-402.937
-388.767
-374.367
-359.843
-345.261
-330.654
-316.058
-301.536
-287.196
-273.177
-259.568
-246.411
-233.671
-221.28
-209.155
-197.179
-185.263
-173.339
-161.353
-149.302
-137.207
-125.098
-113.005
-100.954
-88.938
-76.933
-64.924
-52.903
-40.887
-28.913
-17.035
-5.325
6.148
17.322
28.15
38.603
48.668
58.336
67.609
76.494
84.993
93.098
100.8
108.087
114.953
121.398
127.431
133.062
138.309
143.186
147.712
151.901
155.765
159.315
162.558
165.498
168.143
170.499
172.578
174.393
175.958
177.288
178.396
179.301
180.017
180.562
180.948
181.189
181.3
181.295
181.188
180.994
180.727
180.4
180.029
179.627
179.209
178.787
178.374
177.982
177.621
177.302
177.033
176.825
176.684
176.619
176.637
176.745
176.948
177.253
177.663
178.182
178.813
179.556
180.412
181.381
182.461
183.651
184.948
186.348
187.849
189.446
191.132
192.902
194.748
196.662
198.635
200.655
202.713
204.796
206.893
208.99
211.074
213.132
215.148
217.11
219.001
220.808
222.515
224.107
225.569
226.888
228.048
229.036
229.839
230.443
230.836
231.006
230.941
230.631
230.064
229.232
228.124
226.732
225.049
223.069
220.786
218.196
215.296
212.084
208.56
204.725
200.581
196.132
191.383
186.341
181.012
175.407
169.536
163.41
157.042
150.447
143.64
136.635
129.451
122.103
114.611
106.994
99.27
91.46
83.585
75.667
67.727
59.788
51.874
44.008
36.212
28.511
20.928
13.486
6.208
-0.884
-7.769
-14.427
-20.839
-26.986
-32.852
-38.424
-43.688
-48.633
-53.251
-57.536
-61.485
-65.094
-68.364
-71.297
-73.896
-76.168
-78.121
-79.763
-81.107
-82.166
-82.956
-83.493
-83.799
-83.895
-83.804
-83.553
-83.168
-82.679
-82.116
-81.51
-80.894
-80.299
-79.76
-79.311
-78.983
-78.81
-78.82
-79.045
-79.512
-80.245
-81.267
-82.594
-84.242
-86.225
-88.555
-91.239
-94.283
-97.693
-101.471
-105.621
-110.14
-115.023
-120.262
-125.843
-131.748
-137.955
-144.44
-151.174
-158.122
-165.247
-172.511
-179.879
-187.311
-194.765
-202.191
-209.534
-216.746
-223.794
-230.65
-237.29
-243.701
-249.873
-255.814
-261.545
-267.089
-272.462
-277.674
-282.721
-287.598
-292.296
-296.812
-301.151
-305.293
-309.185
-312.759
-315.936
-318.628
-320.747
-322.188
-322.812
-322.506
-321.192
-318.814
-315.356
-310.831
-305.271
-298.718
-291.229
-282.893
-273.843
-264.256
-254.343
-244.313
-234.371
-224.723
-215.615
-207.265
-199.848
-193.538
-188.433
-184.567
-181.934
-180.501
-180.255
-181.235
-183.437
-186.73
-191.006
-196.209
-202.447
-210.067
-219.171
-229.57
-241.036
-253.274
-266.034
-279.159
-292.002
-303.242
-311.893
-317.443
-319.756
-319.248
-316.068
-310.059
-301.925
-293.487
-286.585
-282.624
-282.447
-286.205
-294.521
-308.769
-327.75
-346.255
-358.697
-359.6
-348.345
-332.988
-318.634
-304.174
-280.848
-225.401
-117.529
50.332
275.054
530.497
782.97
1004.396
1167.153
1260.885
1282.386
1226.297
1097.058
896.094
634.179
340.824
47.986
-205.543
-391.323
-506.042
-558.229
-567.881
-554.642
-526.247
-488.283
-446.439
-406.54
-375.324
-353.004
-331.799
-303.999
-266.454
-223.19
-184.105
-155.837
-139.35
-132.124
-129.489
-128.828
-129.561
-130.394
-129.745
-126.49
-119.983
-110.458
-98.696
-85.19
-70.4
-55.388
-41.483
-29.518
-19.816
-12.217
-6.203
-1.352
2.688
6.443
10.519
15.301
20.965
27.522
34.825
42.762
51.273
60.26
69.602
79.208
89.005
98.923
108.912
118.892
128.758
138.441
147.894
157.09
166.031
174.725
183.186
191.449
199.554
207.527
215.391
223.162
230.853
238.486
246.091
253.693
261.318
268.99
276.728
284.545
292.451
300.446
308.526
316.684
324.908
333.189
341.518
349.886
358.284
366.698
375.113
383.514
391.883
400.198
408.434
416.565
424.563
432.401
440.051
447.483
454.669
461.581
468.191
474.472
480.398
485.942
491.08
495.788
500.046
503.833
507.133
509.93
512.21
513.965
515.186
515.869
516.011
515.612
514.676
513.206
511.212
508.702
505.689
502.188
498.215
493.788
488.93
483.664
478.013
472.004
465.664
459.02
452.101
444.934
437.55
429.975
422.238
414.367
406.388
398.326
390.208
382.055
373.891
365.734
357.605
349.52
341.493
333.541
325.673
317.9
310.232
302.676
295.238
287.922
280.732
273.671
266.738
259.935
253.26
246.712
240.288
233.985
227.799
221.727
215.765
209.908
204.153
198.495
192.93
187.455
182.068
176.764
171.543
166.403
161.343
156.363
151.464
146.647
141.914
137.266
132.706
128.238
123.864
119.587
115.411
111.338
107.372
103.515
99.77
96.138
92.621
89.22
85.936
82.769
79.717
76.779
73.954
71.239
68.631
66.126
63.719
61.405
59.177
57.031
54.958
52.951
51.002
49.103
47.244
45.417
43.613
41.821
40.034
38.242
36.436
34.609
32.754
30.863
28.931
26.953
24.925
22.844
20.708
18.516
16.268
13.966
11.611
9.207
6.758
4.269
1.746
-0.805
-3.375
-5.957
-8.543
-11.123
-13.689
-16.231
-18.74
-21.206
-23.619
-25.969
-28.247
-30.444
-32.55
-34.557
-36.459
-38.247
-39.916
-41.461
-42.878
-44.164
-45.315
-46.331
-47.212
-47.959
-48.572
-49.054
-49.409
-49.642
-49.758
-49.763
-49.663
-49.465
-49.176
-48.803
-48.354
-47.833
-47.249
-46.606
-45.911
-45.17
-44.388
-43.569
-42.718
-41.838
-40.931
-39.999
-39.043
-38.062
-37.053
-36.016
-34.946
-33.841
-32.697
-31.507
-30.268
-28.974
-27.617
-26.192
-24.69
-23.103
-21.423
-19.642
-17.755
-15.755
-13.637
-11.397
-9.036
-6.556
-3.96
-1.254
1.56
4.475
7.48
10.563
13.711
16.915
20.163
23.444
26.74
30.031
33.299
36.527
39.705
42.817
45.847
48.772
51.571
54.238
56.767
59.15
61.376
63.409
65.216
66.782
68.091
69.133
69.904
70.393
70.599
70.558
70.306
69.889
69.361
68.731
68.011
67.212
66.329
65.414
64.538
63.75
63.119
62.677
62.361
62.147
62.031
61.85
61.403
60.327
58.026
54.193
48.819
41.944
33.692
24.157
13.4
2.061
-8.536
-17.418
-24.102
-28.535
-31.096
-31.757
-30.27
-27.35
-24.927
-24.993
-29.042
-37.855
-51.413
-70.115
-94.957
-124.419
-153.305
-176.124
-187.34
-185.426
-176.194
-162.567
-142.529
-109.364
-45.825
62.401
218.88
420.972
650.769
882.939
1095.457
1262.664
1364.599
1388.653
1324.164
1173.603
950.617
677.62
389.074
119.254
-104.356
-264.772
-363.319
-412.522
-426.634
-417.002
-388.045
-341.139
-283.762
-230.194
-192.172
-175.163
-173.663
-172.508
-162.835
-144.071
-121.106
-103.381
-94.778
-93.643
-97.276
-102.056
-105.901
-107.862
-107.361
-104.479
-99.457
-92.827
-85.112
-76.585
-67.903
-60.197
-54.179
-50.167
-48.172
-47.73
-48.421
-49.956
-51.848
-53.511
-54.567
-54.79
-54.112
-52.646
-50.467
-47.61
-44.163
-40.225
-35.874
-31.184
-26.198
-20.954
-15.523
-9.999
-4.481
0.961
6.285
11.472
16.52
21.432
26.223
30.922
35.566
40.18
44.782
49.387
54.009
58.668
63.39
68.199
73.119
78.17
83.366
88.717
94.229
99.9
105.726
111.697
117.803
124.032
130.376
136.823
143.36
149.974
156.646
163.358
170.091
176.82
183.519
190.161
196.717
203.157
209.451
215.57
221.481
227.154
232.56
237.666
242.445
246.868
250.906
254.532
257.723
260.454
262.705
264.455
265.688
266.388
266.543
266.145
265.186
263.663
261.576
258.925
255.718
251.962
247.67
242.855
237.535
231.73
225.464
218.762
211.652
204.164
196.331
188.186
179.763
171.1
162.232
153.198
144.034
134.779
125.469
116.143
106.837
97.585
88.424
79.386
70.503
61.806
53.325
45.085
37.111
29.427
22.052
15.004
8.298
1.946
-4.043
-9.659
-14.901
-19.764
-24.249
-28.36
-32.101
-35.479
-38.504
-41.188
-43.543
-45.584
-47.327
-48.789
-49.989
-50.944
-51.674
-52.199
-52.539
-52.714
-52.743
-52.648
-52.448
-52.161
-51.808
-51.407
-50.974
-50.525
-50.077
-49.643
-49.234
-48.863
-48.54
-48.272
-48.067
-47.93
-47.866
-47.879
-47.968
-48.136
-48.38
-48.698
-49.087
-49.543
-50.062
-50.638
-51.266
-51.939
-52.652
-53.4
-54.175
-54.972
-55.785
-56.608
-57.434
-58.259
-59.078
-59.886
-60.68
-61.456
-62.212
-62.948
-63.661
-64.353
-65.024
-65.675
-66.309
-66.929
-67.538
-68.142
-68.746
-69.356
-69.981
-70.626
-71.301
-72.014
-72.771
-73.582
-74.454
-75.394
-76.409
-77.505
-78.69
-79.968
-81.347
-82.83
-84.421
-86.124
-87.942
-89.877
-91.928
-94.094
-96.373
-98.763
-101.259
-103.857
-106.551
-109.335
-112.2
-115.138
-118.138
-121.191
-124.283
-127.4
-130.528
-133.653
-136.758
-139.829
-142.85
-145.806
-148.681
-151.46
-154.131
-156.678
-159.089
-161.349
-163.446
-165.369
-167.107
-168.65
-169.991
-171.123
-172.042
-172.75
-173.248
-173.54
-173.631
-173.527
-173.236
-172.768
-172.131
-171.329
-170.371
-169.265
-168.023
-166.663
-165.199
-163.645
-162.014
-160.322
-158.585
-156.822
-155.04
-153.24
-151.431
-149.622
-147.837
-146.117
-144.49
-142.978
-141.6
-140.373
-139.31
-138.422
-137.69
-137.072
-136.525
-136.007
-135.494
-134.977
-134.42
-133.774
-132.976
-131.942
-130.612
-128.962
-126.953
-124.557
-121.798
-118.713
-115.394
-112.019
-108.738
-105.713
-103.143
-101.186
-100.001
-99.789
-100.771
-103.155
-107.087
-112.489
-119.028
-126.299
-133.849
-141.158
-147.607
-152.52
-155.373
-156.223
-155.997
-155.883
-156.941
-160.402
-167.413
-179.007
-196.399
-217.786
-237.639
-251.007
-252.772
-243.296
-230.12
-214.408
-193.193
-155.649
-79.901
43.068
211.868
416.185
628.3
827.228
997.009
1119.241
1185.608
1185.105
1106.373
950.539
725.453
452.149
165.421
-99.654
-311.751
-453.847
-530.776
-557.825
-557.042
-545.871
-527.148
-502.369
-469.594
-428.191
-386.089
-345.68
-308.9
-278.13
-251.429
-231.321
-219.318
-214.217
-215.769
-220.671
-226.186
-231.173
-233.435
-232.205
-227.687
-219.798
-209.285
-197.253
-184.281
-171.279
-159.567
-149.771
-142.129
-136.695
-133.018
-130.611
-129.1
-127.896
-126.334
-124.039
-120.808
-116.578
-111.458
-105.501
-98.748
-91.313
-83.315
-74.852
-66
-56.798
-47.288
-37.547
-27.684
-17.813
-8.017
1.66
11.195
20.579
29.811
38.893
47.851
56.726
65.54
74.314
83.061
91.79
100.523
109.286
118.105
127.004
136.003
145.114
154.347
163.706
173.189
182.79
192.499
202.301
212.183
222.135
232.145
242.198
252.279
262.368
272.445
282.486
292.467
302.357
312.127
321.743
331.172
340.38
349.333
357.994
366.328
374.299
381.873
389.014
395.688
401.862
407.504
412.585
417.077
420.955
424.195
426.778
428.685
429.903
430.42
430.229
429.325
427.706
425.374
422.335
418.597
414.173
409.077
403.33
396.953
389.972
382.416
374.316
365.706
356.623
347.106
337.195
326.932
316.36
305.524
294.467
283.236
271.875
260.429
248.941
237.455
226.013
214.655
203.42
192.344
181.464
170.813
160.42
150.314
140.522
131.067
121.97
113.248
104.918
96.993
89.481
82.392
75.731
69.499
63.697
58.324
53.373
48.84
44.715
40.988
37.647
34.677
32.065
29.793
27.846
26.204
24.852
23.768
22.936
22.336
21.95
21.758
21.742
21.884
22.166
22.57
23.081
23.681
24.356
25.092
25.873
26.689
27.526
28.373
29.22
30.057
30.874
31.664
32.42
33.134
33.802
34.418
34.978
35.478
35.917
36.29
36.596
36.833
36.999
37.094
37.116
37.065
36.94
36.742
36.471
36.128
35.713
35.228
34.673
34.049
33.358
32.6
31.777
30.89
29.939
28.928
27.857
26.728
25.542
24.301
23.007
21.661
20.264
18.818
17.325
15.784
14.198
12.569
10.897
9.186
7.437
5.652
3.833
1.983
0.104
-1.801
-3.731
-5.683
-7.655
-9.644
-11.648
-13.663
-15.686
-17.714
-19.742
-21.765
-23.778
-25.775
-27.753
-29.705
-31.624
-33.503
-35.335
-37.111
-38.824
-40.465
-42.022
-43.487
-44.848
-46.096
-47.221
-48.212
-49.06
-49.754
-50.285
-50.643
-50.822
-50.812
-50.604
-50.191
-49.566
-48.724
-47.66
-46.37
-44.852
-43.106
-41.135
-38.947
-36.547
-33.945
-31.151
-28.177
-25.037
-21.744
-18.311
-14.751
-11.077
-7.308
-3.464
0.43
4.355
8.29
12.212
16.102
19.934
23.69
27.363
30.943
34.414
37.754
40.922
43.881
46.606
49.073
51.261
53.156
54.745
56.034
57.061
57.861
58.469
58.912
59.193
59.327
59.359
59.346
59.36
59.475
59.727
60.15
60.788
61.644
62.681
63.818
64.915
65.829
66.434
66.581
66.118
64.892
62.748
59.51
54.936
48.799
41.024
31.769
21.402
10.421
-0.649
-11.192
-20.352
-27.314
-31.679
-33.823
-34.814
-35.891
-38.496
-44.174
-54.429
-70.99
-93.31
-117.146
-137.987
-151.344
-156.243
-157.937
-157.943
-151.071
-126.181
-64.749
45.992
204.177
399.069
611.534
820.228
1011.591
1171.283
1283.457
1334.124
1307.87
1199.572
1015.181
769.659
489.828
204.379
-56.675
-267.521
-416.766
-505.303
-544.948
-550.776
-532.921
-496.23
-444.899
-388.269
-337.155
-299.702
-277.399
-261.786
-244.414
-222.939
-199.803
-181.982
-174.365
-176.573
-185.393
-196.594
-206.979
-214.408
-218.063
-218.083
-214.551
-208.092
-199.685
-189.968
-179.969
-171.177
-164.367
-159.86
-157.737
-157.495
-158.601
-160.661
-163.049
-165.065
-166.317
-166.584
-165.802
-164.107
-161.576
-158.247
-154.231
-149.636
-144.546
-139.03
-133.125
-126.865
-120.324
-113.608
-106.825
-100.054
-93.339
-86.702
-80.15
-73.681
-67.289
-60.947
-54.622
-48.292
-41.942
-35.561
-29.141
-22.664
-16.105
-9.441
-2.65
4.29
11.388
18.652
26.085
33.683
41.438
49.338
57.366
65.509
73.756
82.091
90.5
98.967
107.471
115.991
124.506
132.99
141.414
149.748
157.96
166.02
173.894
181.549
188.952
196.067
202.863
209.304
215.357
220.99
226.17
230.865
235.044
238.679
241.744
244.212
246.061
247.27
247.823
247.704
246.903
245.41
243.22
240.329
236.739
232.453
227.478
221.823
215.502
208.531
200.929
192.72
183.929
174.585
164.717
154.358
143.544
132.311
120.696
108.739
96.48
83.961
71.223
58.311
45.266
32.132
18.951
5.766
-7.382
-20.454
-33.411
-46.215
-58.831
-71.227
-83.369
-95.23
-106.781
-117.999
-128.862
-139.351
-149.448
-159.14
-168.416
-177.268
-185.691
-193.681
-201.237
-208.362
-215.059
-221.335
-227.199
-232.661
-237.732
-242.428
-246.764
-250.757
-254.426
-257.79
-260.871
-263.689
-266.266
-268.626
-270.789
-272.78
-274.619
-276.328
-277.93
-279.444
-280.89
-282.287
-283.652
-285.001
-286.348
-287.708
-289.09
-290.506
-291.963
-293.468
-295.027
-296.644
-298.321
-300.059
-301.859
-303.718
-305.635
-307.604
-309.623
-311.683
-313.779
-315.902
-318.045
-320.197
-322.35
-324.493
-326.616
-328.71
-330.764
-332.768
-334.714
-336.591
-338.391
-340.107
-341.731
-343.259
-344.684
-346.004
-347.216
-348.32
-349.315
-350.203
-350.986
-351.667
-352.25
-352.741
-353.145
-353.468
-353.718
-353.902
-354.029
-354.107
-354.146
-354.156
-354.146
-354.126
-354.105
-354.092
-354.097
-354.126
-354.188
-354.287
-354.431
-354.623
-354.867
-355.167
-355.524
-355.936
-356.403
-356.921
-357.484
-358.087
-358.719
-359.372
-360.033
-360.691
-361.333
-361.946
-362.516
-363.026
-363.463
-363.81
-364.05
-364.167
-364.142
-363.96
-363.606
-363.065
-362.324
-361.372
-360.198
-358.797
-357.166
-355.301
-353.201
-350.866
-348.3
-345.51
-342.507
-339.302
-335.901
-332.317
-328.562
-324.654
-320.611
-316.454
-312.194
-307.849
-303.436
-298.976
-294.499
-290.024
-285.555
-281.1
-276.664
-272.263
-267.933
-263.704
-259.589
-255.607
-251.774
-248.099
-244.606
-241.292
-238.119
-235.045
-232.015
-228.99
-225.978
-222.985
-220.024
-217.089
-214.11
-211.027
-207.793
-204.342
-200.676
-196.794
-192.64
-188.321
-184.083
-180.232
-177.281
-175.668
-175.458
-176.701
-179.391
-183.165
-187.791
-192.869
-197.341
-200.296
-201.303
-199.994
-196.5
-191.489
-185.026
-177.362
-169.757
-163.592
-160.231
-160.874
-165.932
-175.301
-189.484
-209.225
-232.555
-254.263
-268.958
-271.333
-261.091
-246.222
-231.284
-214.831
-188.296
-129.4
-19.634
146.697
365.585
612.766
857.64
1074.235
1235.804
1329.083
1347.493
1286.479
1153.799
956.141
706.879
431.567
154.779
-90.957
-277.555
-397.955
-456.946
-474.927
-477.732
-476.563
-473.062
-461.374
-432.938
-388.502
-334.3
-277.633
-225.446
-180.571
-143.906
-116.157
-97.028
-85.885
-81.506
-82.253
-87.229
-95.367
-104.919
-114.029
-120.771
-124.077
-124.042
-121.06
-115.457
-107.776
-98.796
-89.6
-81.543
-75.346
-71.03
-68.359
-66.874
-66.173
-65.954
-65.757
-65.033
-63.477
-60.996
-57.644
-53.626
-49.072
-44.037
-38.611
-32.883
-26.944
-20.885
-14.779
-8.682
-2.639
3.321
9.173
14.903
20.517
26.032
31.482
36.922
42.387
47.901
53.482
59.14
64.895
70.779
76.82
83.045
89.476
96.132
103.031
110.191
117.619
125.315
133.272
141.477
149.919
158.59
167.479
176.574
185.857
195.311
204.914
214.644
224.475
234.375
244.311
254.246
264.142
273.963
283.669
293.22
302.577
311.699
320.546
329.08
337.262
345.053
352.416
359.316
365.719
371.594
376.911
381.643
385.766
389.26
392.108
394.296
395.814
396.654
396.814
396.294
395.098
393.233
390.711
387.544
383.752
379.355
374.378
368.848
362.796
356.254
349.257
341.841
334.045
325.906
317.465
308.763
299.84
290.737
281.494
272.153
262.753
253.333
243.929
234.579
225.314
216.169
207.171
198.349
189.726
181.326
173.168
165.268
157.641
150.298
143.249
136.499
130.053
123.91
118.071
112.529
107.28
102.315
97.624
93.194
89.013
85.065
81.336
77.807
74.462
71.283
68.251
65.347
62.553
59.849
57.218
54.642
52.105
49.59
47.083
44.572
42.045
39.491
36.901
34.27
31.591
28.86
26.075
23.235
20.342
17.399
14.409
11.38
8.318
5.233
2.133
-0.968
-4.061
-7.132
-10.168
-13.155
-16.078
-18.924
-21.675
-24.317
-26.835
-29.212
-31.434
-33.487
-35.357
-37.03
-38.496
-39.744
-40.764
-41.549
-42.092
-42.386
-42.429
-42.217
-41.75
-41.028
-40.053
-38.83
-37.363
-35.659
-33.726
-31.575
-29.215
-26.657
-23.914
-20.998
-17.923
-14.704
-11.355
-7.893
-4.333
-0.693
3.01
6.758
10.535
14.324
18.108
21.872
25.602
29.283
32.904
36.453
39.92
43.295
46.57
49.74
52.798
55.742
58.571
61.284
63.882
66.368
68.748
71.025
73.206
75.298
77.305
79.238
81.105
82.913
84.673
86.394
88.086
89.758
91.423
93.088
94.762
96.455
98.172
99.919
101.7
103.514
105.359
107.233
109.129
111.04
112.958
114.871
116.767
118.638
120.47
122.252
123.969
125.601
127.126
128.525
129.778
130.867
131.772
132.472
132.948
133.194
133.203
132.961
132.45
131.634
130.478
128.965
127.077
124.801
122.139
119.092
115.68
111.958
107.978
103.787
99.433
94.934
90.317
85.641
80.973
76.405
72.029
67.888
64.025
60.487
57.266
54.322
51.555
48.782
45.858
42.657
39.032
34.856
29.985
24.238
17.5
9.597
0.234
-10.71
-23.189
-36.991
-51.547
-66.194
-80.378
-93.298
-103.88
-111.379
-115.573
-116.881
-116.438
-115.713
-115.966
-118.337
-124.737
-135.645
-148.615
-160.638
-167.812
-168.298
-166.217
-163.952
-157.491
-137.716
-87.752
7.161
148.405
329.566
536.186
747.411
949.028
1126.298
1261.083
1343.242
1359.791
1301.218
1171.363
972.228
716.772
432.18
146.104
-103.314
-284.187
-389.325
-426.394
-421.763
-407.002
-395.78
-389.838
-381.753
-360.618
-326.265
-284.907
-242.945
-206.212
-176.302
-152.325
-133.654
-119.606
-109.141
-100.985
-94.516
-89.707
-86.362
-84.012
-81.757
-78.353
-73.415
-67.379
-60.429
-52.716
-44.6
-36.42
-28.878
-22.946
-18.917
-16.595
-15.742
-15.928
-16.755
-17.956
-19.065
-19.521
-19.044
-17.498
-14.848
-11.166
-6.42
-0.581
6.266
13.963
22.302
31.094
40.213
49.545
58.96
68.353
77.641
86.779
95.79
104.679
113.448
122.092
130.571
138.874
147.015
155.026
162.962
170.881
178.821
186.827
194.956
203.243
211.717
220.385
229.227
238.228
247.383
256.682
266.126
275.709
285.417
295.233
305.141
315.117
325.14
335.18
345.205
355.179
365.07
374.846
384.479
393.939
403.188
412.193
420.915
429.318
437.362
445.008
452.213
458.936
465.139
470.784
475.836
480.262
484.029
487.108
489.473
491.102
491.973
492.071
491.382
489.895
487.604
484.507
480.605
475.902
470.408
464.136
457.101
449.326
440.833
431.651
421.81
411.345
400.292
388.691
376.583
364.012
351.025
337.67
323.997
310.058
295.905
281.59
267.165
252.684
238.199
223.76
209.417
195.219
181.213
167.442
153.951
140.78
127.966
115.546
103.55
92.009
80.949
70.394
60.362
50.872
41.937
33.567
25.77
18.551
11.911
5.848
0.357
-4.568
-8.939
-12.769
-16.073
-18.869
-21.179
-23.024
-24.431
-25.424
-26.033
-26.287
-26.217
-25.852
-25.227
-24.373
-23.323
-22.111
-20.767
-19.326
-17.819
-16.277
-14.73
-13.208
-11.739
-10.35
-9.069
-7.919
-6.924
-6.107
-5.489
-5.087
-4.92
-5.003
-5.35
-5.973
-6.88
-8.08
-9.578
-11.377
-13.479
-15.883
-18.587
-21.586
-24.874
-28.442
-32.283
-36.383
-40.731
-45.313
-50.115
-55.121
-60.315
-65.679
-71.196
-76.849
-82.618
-88.484
-94.429
-100.433
-106.476
-112.538
-118.6
-124.642
-130.646
-136.592
-142.464
-148.244
-153.917
-159.468
-164.883
-170.15
-175.257
-180.194
-184.952
-189.522
-193.899
-198.077
-202.05
-205.817
-209.376
-212.726
-215.866
-218.796
-221.518
-224.033
-226.343
-228.451
-230.358
-232.067
-233.584
-234.911
-236.056
-237.022
-237.814
-238.439
-238.903
-239.213
-239.375
-239.395
-239.277
-239.029
-238.656
-238.165
-237.56
-236.849
-236.039
-235.139
-234.159
-233.108
-231.995
-230.831
-229.624
-228.384
-227.121
-225.839
-224.542
-223.238
-221.933
-220.639
-219.366
-218.122
-216.916
-215.756
-214.647
-213.6
-212.619
-211.696
-210.828
-210.016
-209.269
-208.613
-208.074
-207.661
-207.384
-207.25
-207.257
-207.403
-207.669
-208.006
-208.367
-208.71
-209
-209.231
-209.386
-209.423
-209.286
-208.903
-208.202
-207.155
-205.74
-203.931
-201.736
-199.204
-196.428
-193.566
-190.781
-188.212
-186.006
-184.32
-183.321
-183.172
-184.066
-186.254
-189.945
-195.23
-201.999
-209.846
-218.233
-226.638
-234.418
-240.741
-244.887
-246.388
-245.408
-243.138
-241.029
-240.294
-242.323
-248.51
-259.888
-277.212
-298.537
-318.755
-333.057
-337.54
-331.837
-317.996
-293.659
-252.233
-183.43
-78.626
61.042
227.516
407.71
588.751
762.687
917.461
1037.909
1107.261
1106.042
1028.713
881.109
674.332
432.314
176.965
-70.148
-281.44
-441.871
-544.703
-591.928
-601.569
-588.553
-564.273
-539.485
-515.724
-495.987
-482.031
-468.578
-452.482
-430.021
-400.708
-371.332
-347.051
-330.675
-321.865
-316.622
-313.106
-311.163
-310.823
-312.032
-313.107
-312.515
-310.015
-305.814
-300.237
-293.531
-285.731
-277.364
-269.712
-263.613
-259.315
-256.743
-255.423
-254.93
-255.005
-255.225
-255.009
-253.987
-251.974
-248.92
-244.981
-240.287
-234.904
-228.94
-222.498
-215.654
-208.482
-201.051
-193.415
-185.656
-177.869
-170.118
-162.451
-154.891
-147.444
-140.103
-132.848
-125.643
-118.447
-111.231
-103.978
-96.678
-89.318
-81.881
-74.346
-66.692
-58.901
-50.96
-42.857
-34.583
-26.14
-17.53
-8.767
0.134
9.155
18.281
27.495
36.781
46.121
55.495
64.881
74.256
83.595
92.869
102.049
111.103
119.997
128.699
137.176
145.394
153.32
160.92
168.163
175.017
181.451
187.438
192.949
197.959
202.446
206.389
209.769
212.571
214.781
216.39
217.392
217.784
217.564
216.736
215.307
213.286
210.685
207.521
203.812
199.579
194.846
189.641
183.991
177.93
171.49
164.709
157.622
150.27
142.692
134.93
127.023
119.013
110.942
102.85
94.776
86.759
78.837
71.046
63.419
55.99
48.788
41.842
35.176
28.814
22.776
17.078
11.735
6.758
2.157
-2.064
-5.9
-9.351
-12.419
-15.109
-17.427
-19.384
-20.991
-22.262
-23.214
-23.866
-24.237
-24.35
-24.227
-23.892
-23.37
-22.688
-21.869
-20.942
-19.932
-18.864
-17.764
-16.657
-15.567
-14.517
-13.528
-12.621
-11.814
-11.125
-10.57
-10.161
-9.911
-9.831
-9.928
-10.211
-10.683
-11.348
-12.209
-13.264
-14.513
-15.95
-17.572
-19.37
-21.337
-23.461
-25.733
-28.139
-30.666
-33.301
-36.027
-38.831
-41.695
-44.604
-47.541
-50.491
-53.438
-56.365
-59.259
-62.105
-64.89
-67.601
-70.228
-72.76
-75.187
-77.502
-79.698
-81.769
-83.709
-85.516
-87.186
-88.719
-90.112
-91.367
-92.486
-93.472
-94.327
-95.057
-95.666
-96.161
-96.55
-96.838
-97.035
-97.149
-97.187
-97.158
-97.072
-96.935
-96.756
-96.541
-96.299
-96.034
-95.754
-95.462
-95.161
-94.856
-94.546
-94.233
-93.917
-93.596
-93.267
-92.927
-92.571
-92.197
-91.798
-91.369
-90.905
-90.398
-89.842
-89.232
-88.558
-87.814
-86.992
-86.086
-85.089
-83.995
-82.8
-81.501
-80.095
-78.585
-76.974
-75.263
-73.456
-71.559
-69.579
-67.528
-65.418
-63.259
-61.059
-58.831
-56.589
-54.352
-52.137
-49.956
-47.82
-45.741
-43.734
-41.818
-40.013
-38.321
-36.743
-35.28
-33.939
-32.744
-31.719
-30.873
-30.21
-29.739
-29.46
-29.382
-29.507
-29.8
-30.225
-30.738
-31.286
-31.859
-32.448
-33.037
-33.626
-34.167
-34.587
-34.843
-34.873
-34.633
-34.157
-33.45
-32.493
-31.43
-30.446
-29.855
-30.186
-31.712
-34.43
-38.326
-43.328
-49.343
-56.338
-63.767
-70.462
-75.643
-78.972
-80.396
-80.237
-78.517
-74.982
-70.157
-65.678
-63.192
-63.937
-68.765
-77.865
-91.509
-110.627
-134.39
-158.741
-179.323
-191.807
-194.301
-190.495
-182.197
-165.783
-133.571
-71.714
30.887
173.852
351.254
550.707
755.618
954.716
1130.953
1262.82
1333.268
1324.237
1232.967
1071.233
852.457
600.078
335.067
76.217
-149.612
-324.64
-439.709
-493.854
-503.169
-484.185
-449.168
-410.002
-370.191
-332.329
-298.608
-266.051
-233.751
-201.038
-169.846
-146.266
-132.805
-129.968
-135.852
-145.116
-154.732
-162.889
-167.254
-167.315
-163.106
-154.525
-142.595
-128.693
-113.657
-98.645
-85.171
-73.969
-65.34
-59.359
-55.52
-53.252
-52.145
-51.573
-50.793
-49.386
-47.114
-43.882
-39.811
-34.968
-29.377
-23.14
-16.375
-9.173
-1.615
6.252
14.402
22.764
31.232
39.697
48.045
56.207
64.146
71.838
79.275
86.457
93.399
100.13
106.685
113.092
119.372
125.546
131.634
137.665
143.672
149.686
155.741
161.862
168.067
174.374
180.794
187.334
193.999
200.787
207.697
214.728
221.877
229.142
236.52
244.004
251.583
259.245
266.977
274.76
282.572
290.39
298.187
305.936
313.607
321.169
328.588
335.832
342.865
349.652
356.158
362.346
368.18
373.624
378.642
383.2
387.263
390.799
393.776
396.165
397.94
399.074
399.545
399.333
398.42
396.791
394.434
391.341
387.505
382.925
377.601
371.537
364.744
357.232
349.018
340.119
330.559
320.361
309.554
298.166
286.232
273.785
260.861
247.5
233.743
219.629
205.204
190.511
175.594
160.499
145.272
129.959
114.604
99.254
83.952
68.742
53.668
38.772
24.093
9.672
-4.455
-18.252
-31.685
-44.725
-57.341
-69.509
-81.202
-92.401
-103.087
-113.242
-122.853
-131.908
-140.399
-148.318
-155.662
-162.429
-168.621
-174.239
-179.289
-183.779
-187.718
-191.119
-193.993
-196.356
-198.224
-199.616
-200.551
-201.05
-201.135
-200.828
-200.154
-199.136
-197.801
-196.172
-194.276
-192.138
-189.784
-187.238
-184.526
-181.672
-178.701
-175.635
-172.499
-169.313
-166.1
-162.879
-159.67
-156.491
-153.359
-150.291
-147.3
-144.401
-141.605
-138.923
-136.366
-133.941
-131.656
-129.518
-127.529
-125.695
-124.017
-122.497
-121.135
-119.931
-118.882
-117.986
-117.241
-116.641
-116.183
-115.862
-115.672
-115.608
-115.662
-115.83
-116.104
-116.477
-116.942
-117.493
-118.121
-118.821
-119.587
-120.41
-121.285
-122.206
-123.168
-124.165
-125.192
-126.244
-127.315
-128.401
-129.499
-130.603
-131.708
-132.81
-133.904
-134.986
-136.052
-137.099
-138.121
-139.114
-140.073
-140.995
-141.875
-142.707
-143.487
-144.209
-144.868
-145.458
-145.976
-146.416
-146.772
-147.039
-147.212
-147.287
-147.26
-147.126
-146.88
-146.517
-146.036
-145.435
-144.712
-143.865
-142.897
-141.809
-140.608
-139.301
-137.898
-136.407
-134.838
-133.203
-131.516
-129.788
-128.027
-126.244
-124.448
-122.652
-120.873
-119.127
-117.431
-115.797
-114.242
-112.779
-111.428
-110.197
-109.086
-108.098
-107.239
-106.523
-105.983
-105.645
-105.517
-105.612
-105.935
-106.478
-107.233
-108.167
-109.216
-110.324
-111.438
-112.516
-113.545
-114.494
-115.313
-115.945
-116.303
-116.328
-115.994
-115.255
-114.087
-112.526
-110.625
-108.529
-106.458
-104.551
-102.951
-101.822
-101.251
-101.409
-102.485
-104.503
-107.576
-111.925
-117.579
-124.51
-132.571
-141.085
-149.291
-156.794
-162.948
-166.669
-167.387
-164.978
-159.433
-153.218
-149.126
-146.932
-147.553
-149.662
-149.449
-148.517
-147.036
-145.194
-146.992
-149.901
-149.536
-140.248
-110.199
-51.435
41.575
172.763
338.361
532.884
745.832
957.659
1144.912
1280.762
1341.019
1312.664
1196.219
1001.67
747.567
459.935
166.29
-101.339
-312.659
-452.972
-524.926
-545.429
-538.851
-522.644
-498.256
-463.766
-419.487
-367.776
-321.03
-286.484
-260.856
-241.446
-222.162
-201.004
-183.245
-171.023
-165.29
-165.477
-167.959
-170.769
-172.658
-172.159
-169.203
-164.035
-156.861
-148.285
-138.774
-128.666
-118.824
-110.341
-103.735
-99.108
-96.242
-94.615
-93.821
-93.546
-93.312
-92.569
-90.985
-88.401
-84.822
-80.407
-75.236
-69.352
-62.817
-55.7
-48.133
-40.24
-32.113
-23.84
-15.514
-7.234
0.901
8.814
16.48
23.895
31.069
38.03
44.787
51.359
57.757
63.978
70.054
76.017
81.892
87.715
93.515
99.317
105.159
111.073
117.069
123.152
129.323
135.574
141.908
148.326
154.827
161.41
168.07
174.799
181.592
188.438
195.326
202.241
209.162
216.065
222.932
229.741
236.468
243.09
249.579
255.908
262.049
267.976
273.659
279.07
284.179
288.957
293.377
297.414
301.043
304.238
306.978
309.241
311.009
312.266
312.995
313.186
312.827
311.912
310.435
308.395
305.794
302.635
298.926
294.677
289.901
284.615
278.837
272.59
265.897
258.785
251.281
243.415
235.22
226.726
217.968
208.98
199.796
190.453
180.983
171.423
161.806
152.166
142.537
132.95
123.436
114.025
104.746
95.626
86.69
77.962
69.464
61.214
53.23
45.528
38.119
31.015
24.223
17.75
11.598
5.771
0.266
-4.918
-9.787
-14.346
-18.603
-22.566
-26.247
-29.657
-32.807
-35.709
-38.378
-40.827
-43.07
-45.121
-46.995
-48.707
-50.271
-51.702
-53.014
-54.222
-55.34
-56.379
-57.353
-58.274
-59.154
-60.002
-60.828
-61.642
-62.449
-63.258
-64.073
-64.898
-65.738
-66.594
-67.468
-68.362
-69.275
-70.207
-71.158
-72.128
-73.114
-74.115
-75.129
-76.155
-77.188
-78.227
-79.267
-80.308
-81.344
-82.374
-83.392
-84.397
-85.383
-86.347
-87.285
-88.192
-89.063
-89.894
-90.682
-91.422
-92.113
-92.752
-93.337
-93.867
-94.344
-94.766
-95.133
-95.446
-95.705
-95.909
-96.058
-96.154
-96.195
-96.184
-96.12
-96.007
-95.846
-95.639
-95.389
-95.097
-94.764
-94.395
-93.991
-93.556
-93.093
-92.607
-92.103
-91.586
-91.063
-90.539
-90.019
-89.506
-89.003
-88.512
-88.033
-87.564
-87.101
-86.641
-86.183
-85.724
-85.264
-84.799
-84.33
-83.857
-83.383
-82.909
-82.429
-81.938
-81.426
-80.882
-80.299
-79.661
-78.954
-78.165
-77.28
-76.29
-75.195
-73.986
-72.649
-71.167
-69.513
-67.671
-65.64
-63.421
-61.015
-58.443
-55.732
-52.932
-50.122
-47.354
-44.658
-42.049
-39.516
-37.046
-34.639
-32.28
-29.954
-27.647
-25.327
-22.978
-20.6
-18.154
-15.578
-12.767
-9.562
-5.857
-1.607
3.203
8.534
14.317
20.478
26.892
33.396
39.847
46.117
52.114
57.796
63.089
67.882
72.025
75.312
77.587
78.774
78.811
77.681
75.435
72.178
68.097
63.477
58.573
53.524
48.425
43.337
38.194
32.923
27.449
21.539
14.988
7.842
0.129
-8.095
-16.397
-24.488
-32.181
-38.776
-43.747
-46.988
-48.082
-46.883
-44.013
-39.6
-33.659
-27.225
-21.015
-15.539
-12.414
-12.836
-17.074
-26.437
-41.18
-58.656
-76.307
-90.91
-100.35
-107.615
-116.223
-126.031
-129.954
-112.895
-56.21
53.92
219.313
431.412
669.615
907.597
1121.026
1284.427
1382.16
1407.023
1356.011
1238.278
1061.858
836.702
582.512
318.059
70.443
-131.974
-277.78
-365.758
-408.923
-429.403
-438.124
-437.767
-424.92
-392.331
-341.045
-277.935
-211.225
-149.398
-96.906
-55.921
-27.838
-12.006
-7.014
-10.813
-20.598
-34.23
-49.762
-64.46
-75.824
-82.494
-84.066
-81.116
-74.774
-65.905
-55.362
-44.528
-34.883
-27.309
-22.091
-18.992
-17.401
-16.787
-16.761
-16.78
-16.245
-14.812
-12.339
-8.846
-4.531
0.448
6.014
12.054
18.448
25.119
31.97
38.92
45.914
52.858
59.672
66.313
72.737
78.928
84.89
90.625
96.156
101.523
106.75
111.85
116.836
121.716
126.508
131.242
135.948
140.656
145.395
150.188
155.061
160.034
165.121
170.329
175.66
181.113
186.689
192.394
198.228
204.194
210.291
216.512
222.852
229.303
235.85
242.476
249.159
255.875
262.597
269.3
275.953
282.525
288.982
295.291
301.416
307.322
312.97
318.324
323.345
327.994
332.236
336.032
339.348
342.149
344.404
346.083
347.159
347.607
347.407
346.539
344.987
342.741
339.79
336.131
331.763
326.687
320.91
314.446
307.307
299.516
291.094
282.068
272.469
262.331
251.69
240.584
229.056
217.149
204.907
192.38
179.613
166.658
153.564
140.381
127.158
113.947
100.794
87.748
74.855
62.159
49.703
37.527
25.67
14.166
3.05
-7.649
-17.904
-27.691
-36.991
-45.786
-54.064
-61.815
-69.033
-75.715
-81.863
-87.48
-92.574
-97.155
-101.235
-104.831
-107.961
-110.645
-112.907
-114.769
-116.259
-117.404
-118.233
-118.775
-119.06
-119.12
-118.984
-118.685
-118.254
-117.721
-117.118
-116.473
-115.817
-115.178
-114.583
-114.058
-113.626
-113.311
-113.133
-113.112
-113.264
-113.606
-114.151
-114.911
-115.896
-117.114
-118.571
-120.273
-122.221
-124.418
-126.863
-129.554
-132.489
-135.664
-139.072
-142.707
-146.563
-150.629
-154.897
-159.356
-163.993
-168.797
-173.754
-178.85
-184.07
-189.399
-194.82
-200.319
-205.878
-211.481
-217.113
-222.755
-228.393
-234.01
-239.591
-245.119
-250.58
-255.957
-261.238
-266.406
-271.45
-276.354
-281.108
-285.697
-290.11
-294.335
-298.362
-302.179
-305.778
-309.147
-312.278
-315.163
-317.796
-320.169
-322.277
-324.115
-325.68
-326.97
-327.983
-328.717
-329.174
-329.353
-329.256
-328.884
-328.242
-327.33
-326.153
-324.715
-323.02
-321.074
-318.882
-316.45
-313.783
-310.888
-307.772
-304.441
-300.904
-297.166
-293.235
-289.119
-284.827
-280.367
-275.75
-270.982
-266.075
-261.036
-255.876
-250.606
-245.235
-239.772
-234.227
-228.611
-222.935
-217.209
-211.446
-205.656
-199.854
-194.055
-188.277
-182.537
-176.852
-171.241
-165.721
-160.313
-155.035
-149.901
-144.925
-140.122
-135.506
-131.095
-126.909
-122.963
-119.271
-115.847
-112.703
-109.851
-107.299
-105.041
-103.073
-101.394
-100.009
-98.937
-98.2
-97.803
-97.752
-98.049
-98.682
-99.637
-100.885
-102.363
-104.014
-105.784
-107.626
-109.514
-111.422
-113.294
-115.068
-116.661
-117.985
-118.992
-119.629
-119.836
-119.614
-118.999
-118.079
-117.006
-115.9
-114.855
-114.001
-113.462
-113.379
-113.925
-115.2
-117.381
-120.791
-125.594
-131.786
-139.161
-147.078
-154.809
-161.774
-167.137
-169.875
-169.4
-165.599
-159.127
-151.663
-145.143
-141.248
-141.692
-148.418
-161.262
-177.632
-194.377
-206.503
-212.788
-216.54
-215.458
-204.112
-169.767
-93.731
28.074
189.54
375.037
561.282
739.081
905.15
1055.281
1183.831
1272.477
1298.622
1246.634
1111.921
901.682
636.871
348.321
66.247
-176.046
-353.605
-462.627
-507.214
-502.632
-472.067
-426.615
-376.911
-335.281
-302.477
-280.209
-266.194
-248.309
-222.916
-191.846
-159.425
-135.364
-123.649
-122.548
-129.109
-138.924
-149.289
-158.765
-165.618
-168.901
-168.223
-163.676
-156.04
-146.055
-134.436
-122.409
-111.386
-102.283
-95.509
-91.005
-88.323
-87.027
-86.719
-86.791
-86.569
-85.638
-83.793
-81.011
-77.426
-73.128
-68.171
-62.661
-56.721
-50.437
-43.876
-37.076
-30.066
-22.915
-15.724
-8.589
-1.587
5.238
11.868
18.295
24.521
30.559
36.438
42.192
47.845
53.418
58.929
64.395
69.839
75.293
80.783
86.341
91.995
97.765
103.666
109.712
115.907
122.254
128.751
135.392
142.175
149.094
156.144
163.32
170.611
178.005
185.491
193.052
200.669
208.32
215.981
223.628
231.231
238.764
246.195
253.492
260.624
267.557
274.258
280.693
286.83
292.634
298.074
303.118
307.736
311.898
315.578
318.751
321.394
323.487
325.014
325.96
326.315
326.07
325.219
323.761
321.696
319.027
315.761
311.906
307.475
302.484
296.952
290.899
284.351
277.334
269.878
262.014
253.775
245.197
236.316
227.168
217.793
208.228
198.514
188.689
178.793
168.864
158.94
149.058
139.252
129.556
120.002
110.62
101.438
92.482
83.776
75.342
67.199
59.366
51.857
44.685
37.861
31.393
25.286
19.543
14.164
9.147
4.488
0.181
-3.784
-7.417
-10.729
-13.735
-16.449
-18.887
-21.066
-23.006
-24.723
-26.236
-27.566
-28.73
-29.748
-30.636
-31.413
-32.097
-32.702
-33.245
-33.74
-34.201
-34.642
-35.074
-35.508
-35.955
-36.422
-36.917
-37.445
-38.011
-38.618
-39.266
-39.957
-40.689
-41.46
-42.267
-43.105
-43.969
-44.854
-45.753
-46.659
-47.564
-48.462
-49.343
-50.2
-51.026
-51.813
-52.555
-53.244
-53.875
-54.443
-54.943
-55.371
-55.723
-55.995
-56.186
-56.295
-56.319
-56.26
-56.119
-55.897
-55.6
-55.229
-54.792
-54.295
-53.744
-53.146
-52.51
-51.843
-51.156
-50.456
-49.753
-49.056
-48.375
-47.718
-47.096
-46.517
-45.989
-45.519
-45.115
-44.782
-44.525
-44.349
-44.256
-44.247
-44.325
-44.488
-44.739
-45.073
-45.488
-45.979
-46.541
-47.167
-47.847
-48.573
-49.332
-50.113
-50.902
-51.687
-52.455
-53.191
-53.881
-54.511
-55.068
-55.539
-55.91
-56.169
-56.302
-56.299
-56.148
-55.842
-55.372
-54.732
-53.918
-52.927
-51.764
-50.431
-48.934
-47.279
-45.474
-43.531
-41.461
-39.276
-36.985
-34.599
-32.13
-29.596
-27.021
-24.423
-21.823
-19.24
-16.693
-14.204
-11.793
-9.473
-7.245
-5.117
-3.101
-1.219
0.488
1.99
3.269
4.304
5.082
5.6
5.852
5.861
5.675
5.334
4.881
4.34
3.713
3.028
2.327
1.66
1.113
0.745
0.597
0.724
1.149
1.851
2.79
3.875
4.973
5.97
6.722
7.074
6.907
6.074
4.478
1.983
-1.721
-6.814
-13.282
-20.978
-29.414
-37.977
-46.252
-53.614
-59.093
-62.103
-62.511
-60.719
-58.071
-56.265
-56.75
-60.985
-70.854
-86.37
-104.835
-123.195
-137.239
-145.349
-151.63
-157.37
-158.205
-144.685
-99.525
-9.264
125.721
297.264
489.08
680.324
858.392
1010.743
1121.256
1179.693
1173.197
1093.782
947.324
741.855
494.303
228.126
-34.172
-267.377
-452.923
-579.928
-647.552
-662.651
-631.631
-568.095
-484.9
-397.379
-327.391
-283.241
-265.521
-266.406
-267.176
-259.766
-243.843
-223.059
-207.675
-201.379
-201.815
-206.1
-209.1
-207.748
-202.344
-193.458
-181.901
-168.66
-154.31
-139.382
-124.908
-112.018
-101.208
-92.619
-86.152
-81.377
-77.9
-75.389
-73.287
-71.003
-68.214
-64.754
-60.603
-55.877
-50.632
-44.905
-38.792
-32.405
-25.833
-19.148
-12.395
-5.609
1.14
7.753
14.131
20.202
25.932
31.312
36.349
41.06
45.47
49.625
53.583
57.394
61.101
64.744
68.361
71.996
75.702
79.527
83.521
87.727
92.182
96.915
101.953
107.311
113.001
119.028
125.389
132.083
139.107
146.453
154.111
162.067
170.299
178.785
187.496
196.4
205.457
214.625
223.859
233.109
242.325
251.454
260.44
269.228
277.758
285.973
293.814
301.224
308.144
314.518
320.293
325.414
329.835
333.51
336.395
338.454
339.654
339.966
339.368
337.842
335.375
331.96
327.596
322.288
316.046
308.885
300.829
291.903
282.142
271.585
260.275
248.261
235.595
222.334
208.538
194.27
179.597
164.586
149.307
133.832
118.232
102.58
86.948
71.406
56.025
40.872
26.013
11.512
-2.572
-16.181
-29.264
-41.769
-53.653
-64.874
-75.397
-85.189
-94.226
-102.486
-109.952
-116.614
-122.467
-127.509
-131.745
-135.184
-137.84
-139.73
-140.877
-141.308
-141.051
-140.141
-138.615
-136.511
-133.872
-130.741
-127.165
-123.19
-118.865
-114.238
-109.358
-104.275
-99.037
-93.692
-88.288
-82.872
-77.488
-72.179
-66.988
-61.953
-57.111
-52.496
-48.139
-44.069
-40.312
-36.889
-33.82
-31.121
-28.806
-26.884
-25.364
-24.248
-23.539
-23.235
-23.33
-23.819
-24.69
-25.934
-27.534
-29.476
-31.74
-34.309
-37.16
-40.272
-43.62
-47.181
-50.927
-54.834
-58.873
-63.018
-67.243
-71.518
-75.82
-80.123
-84.402
-88.636
-92.801
-96.877
-100.844
-104.686
-108.386
-111.928
-115.299
-118.487
-121.483
-124.279
-126.87
-129.251
-131.421
-133.38
-135.127
-136.667
-138.005
-139.145
-140.096
-140.865
-141.462
-141.902
-142.197
-142.362
-142.412
-142.362
-142.229
-142.032
-141.785
-141.503
-141.2
-140.89
-140.586
-140.303
-140.049
-139.834
-139.667
-139.561
-139.523
-139.56
-139.676
-139.876
-140.161
-140.536
-140.997
-141.538
-142.152
-142.829
-143.561
-144.343
-145.165
-146.016
-146.883
-147.75
-148.608
-149.451
-150.264
-151.024
-151.705
-152.279
-152.738
-153.098
-153.368
-153.544
-153.631
-153.631
-153.557
-153.442
-153.289
-153.069
-152.753
-152.307
-151.727
-151.046
-150.287
-149.472
-148.595
-147.613
-146.506
-145.292
-143.953
-142.457
-140.757
-138.773
-136.509
-134.078
-131.568
-129.062
-126.605
-124.178
-121.784
-119.447
-117.183
-115.016
-112.94
-110.908
-108.924
-107.044
-105.329
-103.877
-102.693
-101.642
-100.607
-99.476
-98.149
-96.612
-94.879
-92.988
-90.988
-88.909
-86.864
-85.127
-84.104
-84.153
-85.413
-87.676
-90.759
-94.9
-100.236
-106.519
-112.92
-118.154
-121.361
-122.561
-122.048
-119.501
-114.538
-107.271
-98.98
-92.092
-88.538
-89.263
-94.569
-105.014
-121.725
-143.412
-165.182
-181.914
-188.797
-186.61
-182.307
-176.069
-161.894
-126.376
-50.134
72.68
235.09
422.159
612.776
794.424
960.533
1101.573
1205.939
1255.232
1231.317
1129.379
954.411
724.215
467.434
209.618
-21.958
-204.799
-333.358
-410.02
-448.276
-467.843
-477.212
-478.134
-467.722
-440.142
-397.052
-344.815
-290.609
-241.511
-201.082
-170.891
-151.221
-140.613
-137.5
-140.006
-145.722
-153.073
-160.382
-165.196
-166.23
-163.203
-156.189
-146.146
-134.25
-121.223
-108.195
-96.813
-88.008
-82.165
-79.312
-78.808
-79.99
-82.405
-85.378
-88.165
-90.322
-91.561
-91.767
-91.061
-89.521
-87.167
-84.061
-80.214
-75.595
-70.229
-64.184
-57.588
-50.599
-43.368
-36.032
-28.702
-21.469
-14.4
-7.517
-0.803
5.777
12.252
18.635
24.897
31.003
36.948
42.756
48.489
54.202
59.938
65.739
71.648
77.708
83.955
90.395
97.01
103.78
110.691
117.736
124.92
132.244
139.701
147.278
154.96
162.733
170.579
178.479
186.403
194.32
202.2
210.015
217.743
225.358
232.832
240.133
247.228
254.087
260.678
266.968
272.92
278.502
283.678
288.42
292.698
296.484
299.754
302.483
304.65
306.238
307.232
307.619
307.389
306.533
305.049
302.934
300.192
296.825
292.843
288.257
283.081
277.334
271.037
264.214
256.893
249.101
240.872
232.239
223.237
213.903
204.275
194.393
184.299
174.033
163.638
153.155
142.626
132.091
121.59
111.162
100.843
90.669
80.672
70.885
61.337
52.055
43.065
34.389
26.047
18.057
10.433
3.188
-3.669
-10.132
-16.199
-21.867
-27.139
-32.019
-36.512
-40.629
-44.378
-47.773
-50.826
-53.554
-55.974
-58.103
-59.961
-61.567
-62.943
-64.108
-65.084
-65.891
-66.549
-67.077
-67.496
-67.824
-68.078
-68.277
-68.435
-68.568
-68.689
-68.812
-68.947
-69.102
-69.286
-69.504
-69.762
-70.062
-70.405
-70.793
-71.226
-71.701
-72.216
-72.768
-73.353
-73.966
-74.601
-75.252
-75.913
-76.577
-77.239
-77.89
-78.525
-79.138
-79.724
-80.276
-80.789
-81.259
-81.682
-82.052
-82.368
-82.625
-82.822
-82.958
-83.032
-83.047
-83.003
-82.905
-82.755
-82.558
-82.32
-82.047
-81.745
-81.42
-81.082
-80.736
-80.392
-80.059
-79.744
-79.458
-79.207
-79.001
-78.846
-78.75
-78.72
-78.762
-78.88
-79.082
-79.37
-79.749
-80.224
-80.798
-81.473
-82.252
-83.134
-84.12
-85.208
-86.396
-87.679
-89.053
-90.512
-92.049
-93.656
-95.325
-97.046
-98.808
-100.599
-102.407
-104.218
-106.02
-107.795
-109.53
-111.21
-112.821
-114.349
-115.78
-117.098
-118.292
-119.35
-120.259
-121.009
-121.589
-121.987
-122.197
-122.21
-122.02
-121.623
-121.014
-120.194
-119.165
-117.934
-116.506
-114.892
-113.102
-111.148
-109.047
-106.814
-104.462
-102.007
-99.465
-96.853
-94.196
-91.518
-88.843
-86.192
-83.591
-81.058
-78.619
-76.294
-74.091
-72.019
-70.091
-68.326
-66.759
-65.425
-64.343
-63.531
-63.006
-62.767
-62.819
-63.147
-63.705
-64.45
-65.343
-66.349
-67.458
-68.652
-69.884
-71.097
-72.208
-73.133
-73.836
-74.277
-74.405
-74.224
-73.772
-73.137
-72.487
-71.957
-71.648
-71.683
-72.185
-73.304
-75.22
-78.067
-82.014
-87.321
-94.134
-102.452
-112.031
-122.28
-132.503
-142.061
-150.19
-155.999
-158.802
-158.369
-155.385
-151.31
-147.673
-145.995
-147.603
-153.75
-165.913
-183.356
-201.731
-216.156
-221.098
-213.833
-198.281
-176
-144.721
-99.133
-24.942
89.902
248.433
449.078
676.265
906.2
1115.802
1277.395
1371.4
1386.477
1316.158
1167.353
950.657
683.802
393.054
104.862
-150.654
-350.183
-483.038
-550.094
-563.98
-540.609
-495.396
-440.256
-385.827
-341.155
-309.248
-288.578
-270.46
-245.958
-213.18
-175.564
-141.308
-116.157
-100.05
-90.351
-83.51
-77.748
-72.866
-68.035
-62.118
-54.464
-45.136
-34.925
-24.548
-14.316
-4.515
4.094
10.322
13.496
13.627
11.205
7.047
1.793
-4.175
-10.361
-16.119
-20.985
-24.621
-26.818
-27.624
-27.085
-25.195
-22.013
-17.607
-12.074
-5.601
1.57
9.177
16.981
24.82
32.597
40.224
47.627
54.734
61.483
67.875
73.937
79.677
85.096
90.19
94.972
99.509
103.904
108.273
112.702
117.251
121.959
126.865
131.999
137.383
143.021
148.894
154.987
161.296
167.824
174.576
181.548
188.724
196.076
203.58
211.212
218.947
226.757
234.613
242.484
250.342
258.163
265.923
273.593
281.139
288.523
295.708
302.653
309.32
315.668
321.654
327.239
332.387
337.062
341.233
344.868
347.939
350.42
352.289
353.526
354.113
354.038
353.289
351.86
349.746
346.949
343.472
339.322
334.511
329.052
322.965
316.27
308.992
301.158
292.797
283.944
274.634
264.904
254.797
244.353
233.616
222.632
211.447
200.108
188.659
177.147
165.615
154.108
142.667
131.334
120.148
109.145
98.36
87.827
77.575
67.632
58.024
48.772
39.896
31.413
23.338
15.682
8.454
1.66
-4.696
-10.613
-16.092
-21.138
-25.757
-29.957
-33.751
-37.149
-40.168
-42.823
-45.132
-47.113
-48.786
-50.171
-51.289
-52.161
-52.808
-53.253
-53.515
-53.615
-53.573
-53.408
-53.139
-52.784
-52.358
-51.878
-51.358
-50.812
-50.254
-49.694
-49.145
-48.616
-48.115
-47.651
-47.231
-46.86
-46.544
-46.286
-46.089
-45.956
-45.889
-45.888
-45.953
-46.085
-46.282
-46.543
-46.866
-47.25
-47.692
-48.189
-48.741
-49.345
-49.998
-50.7
-51.448
-52.242
-53.08
-53.963
-54.887
-55.854
-56.863
-57.913
-59.005
-60.138
-61.311
-62.526
-63.783
-65.082
-66.422
-67.806
-69.232
-70.7
-72.213
-73.769
-75.37
-77.014
-78.704
-80.437
-82.215
-84.037
-85.902
-87.81
-89.758
-91.745
-93.769
-95.828
-97.918
-100.035
-102.175
-104.335
-106.509
-108.691
-110.877
-113.059
-115.23
-117.384
-119.513
-121.61
-123.667
-125.676
-127.628
-129.514
-131.327
-133.056
-134.692
-136.225
-137.645
-138.942
-140.108
-141.132
-142.007
-142.722
-143.27
-143.644
-143.836
-143.841
-143.652
-143.264
-142.675
-141.884
-140.889
-139.692
-138.296
-136.707
-134.933
-132.984
-130.869
-128.601
-126.195
-123.665
-121.033
-118.318
-115.538
-112.709
-109.851
-106.984
-104.13
-101.313
-98.546
-95.847
-93.233
-90.723
-88.346
-86.123
-84.053
-82.139
-80.382
-78.788
-77.381
-76.186
-75.203
-74.44
-73.903
-73.596
-73.535
-73.717
-74.1
-74.638
-75.273
-75.961
-76.701
-77.497
-78.353
-79.253
-80.131
-80.917
-81.564
-82.01
-82.239
-82.226
-81.902
-81.354
-80.799
-80.525
-81.016
-82.689
-85.618
-89.86
-95.418
-101.946
-109.193
-116.761
-123.612
-128.833
-132.024
-132.869
-131.494
-128.581
-124.308
-119.002
-113.909
-110.369
-109.636
-112.814
-120.361
-132.185
-148.544
-169.801
-194.346
-218.376
-237.727
-247.949
-247.725
-239.99
-225.917
-204.198
-168.678
-108.272
-13.216
122.285
296.699
502.358
724.538
942.886
1136.612
1281.593
1358.283
1355.096
1265.357
1094.72
857.942
576.206
279.648
-1.019
-240.703
-420.972
-536.171
-590.781
-591.723
-553.089
-490.692
-419.629
-359.476
-319.115
-297.06
-287.088
-274.431
-252.153
-223.497
-193.998
-172.676
-163.514
-164.106
-170.668
-178.904
-185.985
-190.206
-190.821
-187.93
-181.655
-172.669
-161.968
-150.135
-138.111
-127.314
-118.458
-111.853
-107.558
-105.066
-103.868
-103.576
-103.574
-103.18
-102.001
-99.817
-96.572
-92.395
-87.352
-81.495
-74.949
-67.841
-60.284
-52.363
-44.131
-35.639
-26.978
-18.267
-9.631
-1.162
7.09
15.093
22.837
30.317
37.532
44.51
51.291
57.899
64.355
70.676
76.873
82.975
89.016
95.026
101.039
107.083
113.18
119.35
125.608
131.963
138.418
144.976
151.633
158.39
165.248
172.206
179.263
186.414
193.651
200.966
208.347
215.779
223.242
230.714
238.171
245.587
252.936
260.189
267.315
274.283
281.06
287.613
293.909
299.914
305.592
310.911
315.837
320.338
324.384
327.943
330.989
333.497
335.442
336.807
337.571
337.722
337.246
336.135
334.383
331.989
328.952
325.278
320.973
316.05
310.524
304.413
297.739
290.528
282.806
274.605
265.957
256.897
247.462
237.69
227.621
217.296
206.757
196.047
185.209
174.285
163.318
152.35
141.421
130.572
119.839
109.26
98.87
88.7
78.783
69.146
59.817
50.818
42.172
33.896
26.007
18.518
11.439
4.779
-1.459
-7.272
-12.66
-17.626
-22.175
-26.314
-30.053
-33.403
-36.378
-38.994
-41.267
-43.216
-44.861
-46.222
-47.32
-48.176
-48.814
-49.255
-49.521
-49.635
-49.618
-49.493
-49.281
-49.002
-48.677
-48.326
-47.966
-47.615
-47.289
-47.004
-46.774
-46.61
-46.526
-46.531
-46.635
-46.846
-47.17
-47.614
-48.18
-48.872
-49.691
-50.637
-51.71
-52.905
-54.222
-55.656
-57.202
-58.856
-60.611
-62.461
-64.4
-66.42
-68.514
-70.672
-72.888
-75.152
-77.456
-79.791
-82.149
-84.523
-86.903
-89.283
-91.655
-94.012
-96.347
-98.653
-100.923
-103.153
-105.338
-107.472
-109.552
-111.575
-113.54
-115.444
-117.287
-119.069
-120.789
-122.449
-124.048
-125.589
-127.074
-128.503
-129.88
-131.208
-132.489
-133.727
-134.926
-136.09
-137.221
-138.322
-139.398
-140.45
-141.481
-142.493
-143.485
-144.462
-145.422
-146.368
-147.3
-148.215
-149.115
-149.995
-150.854
-151.689
-152.494
-153.264
-153.993
-154.675
-155.306
-155.878
-156.383
-156.817
-157.17
-157.438
-157.613
-157.689
-157.659
-157.515
-157.254
-156.87
-156.359
-155.718
-154.946
-154.042
-153.012
-151.86
-150.592
-149.216
-147.74
-146.174
-144.53
-142.818
-141.046
-139.22
-137.352
-135.453
-133.542
-131.632
-129.74
-127.88
-126.064
-124.31
-122.634
-121.045
-119.541
-118.126
-116.807
-115.603
-114.551
-113.676
-112.995
-112.523
-112.27
-112.238
-112.428
-112.814
-113.345
-113.974
-114.657
-115.363
-116.089
-116.802
-117.457
-117.99
-118.309
-118.353
-118.082
-117.449
-116.427
-115.036
-113.32
-111.39
-109.401
-107.482
-105.77
-104.398
-103.478
-103.155
-103.551
-104.835
-107.307
-111.168
-116.442
-123.003
-130.444
-138.185
-145.714
-152.331
-156.994
-158.918
-157.859
-154.2
-149.054
-144.105
-140.988
-141.135
-146.682
-158.316
-173.776
-190.265
-204.024
-212.944
-220.293
-227.335
-229.195
-216.105
-171.197
-80.587
56.386
232.544
432.92
637.693
834.361
1009.713
1147.129
1236.034
1260.155
1206.55
1075.719
868.581
603.284
313.811
33.425
-197.804
-355.872
-444.733
-479.244
-486.147
-485.333
-475.556
-451.711
-410.071
-355.567
-305.186
-271.491
-255.609
-248.763
-238.836
-220.305
-196.078
-173.802
-158.839
-151.881
-151.169
-153.526
-156.987
-160.51
-162.691
-162.891
-161.012
-157.11
-151.427
-144.185
-135.625
-126.538
-118.194
-111.394
-106.372
-103.006
-100.861
-99.536
-98.792
-98.225
-97.268
-95.577
-92.994
-89.496
-85.262
-80.435
-75.066
-69.252
-63.095
-56.668
-50.065
-43.367
-36.633
-29.953
-23.401
-17.018
-10.847
-4.903
0.819
6.328
11.658
16.862
21.973
27.013
32.002
36.951
41.884
46.833
51.827
56.894
62.059
67.342
72.767
78.35
84.1
90.021
96.108
102.352
108.749
115.295
121.984
128.809
135.76
142.825
149.988
157.235
164.545
171.892
179.251
186.589
193.877
201.083
208.172
215.11
221.862
228.39
234.66
240.635
246.28
251.559
256.439
260.887
264.872
268.364
271.335
273.76
275.617
276.884
277.547
277.589
277.002
275.777
273.909
271.399
268.247
264.46
260.047
255.02
249.394
243.188
236.425
229.132
221.336
213.069
204.365
195.261
185.794
176.005
165.934
155.623
145.116
134.454
123.681
112.841
101.976
91.128
80.338
69.647
59.092
48.71
38.536
28.603
18.941
9.578
0.54
-8.15
-16.471
-24.404
-31.934
-39.048
-45.733
-51.984
-57.794
-63.16
-68.084
-72.567
-76.615
-80.236
-83.438
-86.234
-88.637
-90.661
-92.324
-93.641
-94.633
-95.318
-95.717
-95.85
-95.739
-95.405
-94.87
-94.152
-93.275
-92.256
-91.115
-89.871
-88.541
-87.143
-85.694
-84.208
-82.701
-81.188
-79.681
-78.193
-76.734
-75.316
-73.948
-72.636
-71.389
-70.212
-69.111
-68.09
-67.153
-66.303
-65.544
-64.875
-64.3
-63.818
-63.43
-63.137
-62.936
-62.83
-62.817
-62.898
-63.074
-63.344
-63.71
-64.173
-64.734
-65.393
-66.152
-67.011
-67.971
-69.033
-70.198
-71.464
-72.834
-74.307
-75.884
-77.565
-79.348
-81.233
-83.219
-85.304
-87.486
-89.763
-92.13
-94.585
-97.124
-99.744
-102.44
-105.205
-108.036
-110.923
-113.861
-116.839
-119.849
-122.879
-125.918
-128.952
-131.97
-134.957
-137.902
-140.788
-143.601
-146.327
-148.95
-151.456
-153.829
-156.053
-158.114
-159.997
-161.689
-163.177
-164.449
-165.493
-166.298
-166.855
-167.155
-167.19
-166.954
-166.441
-165.646
-164.566
-163.202
-161.554
-159.625
-157.419
-154.944
-152.212
-149.237
-146.035
-142.622
-139.017
-135.243
-131.32
-127.272
-123.12
-118.884
-114.584
-110.244
-105.891
-101.553
-97.254
-93.017
-88.865
-84.822
-80.914
-77.156
-73.559
-70.13
-66.883
-63.835
-61.022
-58.471
-56.197
-54.215
-52.534
-51.153
-50.068
-49.254
-48.661
-48.241
-47.948
-47.744
-47.619
-47.54
-47.457
-47.316
-47.03
-46.534
-45.799
-44.772
-43.409
-41.732
-39.782
-37.661
-35.549
-33.549
-31.753
-30.294
-29.275
-28.841
-29.164
-30.318
-32.425
-35.724
-40.331
-46.24
-53.223
-60.628
-67.735
-73.976
-78.616
-80.795
-79.915
-75.762
-68.982
-61.166
-53.92
-48.708
-46.96
-50.12
-59.619
-74.161
-89.132
-99.675
-100.145
-90.087
-75.354
-55.235
-26.525
19.796
102.333
226.635
390.417
586.326
792.742
992.403
1167.477
1295.001
1357.395
1338.28
1232.023
1045.183
795.468
514.263
233.19
-13.036
-195.859
-309.176
-359.2
-367.677
-363.071
-357.852
-354.119
-345.69
-321.815
-281.936
-232.041
-179.296
-131.125
-90.492
-57.757
-33.248
-16.553
-7.007
-3.531
-4.711
-9.782
-17.876
-27.554
-37.162
-44.83
-49.486
-51.137
-50.03
-46.376
-40.587
-33.285
-25.456
-18.442
-12.976
-9.138
-6.763
-5.457
-4.877
-4.784
-4.752
-4.236
-2.927
-0.726
2.324
6.018
10.231
14.909
19.962
25.295
30.812
36.419
42.042
47.628
53.131
58.518
63.759
68.832
73.732
78.469
83.068
87.573
92.01
96.394
100.736
105.041
109.323
113.608
117.918
122.275
126.699
131.205
135.812
140.537
145.39
150.375
155.49
160.727
166.082
171.556
177.146
182.848
188.657
194.563
200.559
206.632
212.767
218.947
225.149
231.348
237.521
243.641
249.681
255.613
261.408
267.037
272.468
277.672
282.617
287.272
291.607
295.59
299.191
302.383
305.138
307.429
309.233
310.528
311.293
311.512
311.169
310.252
308.75
306.657
303.968
300.682
296.802
292.332
287.281
281.66
275.485
268.774
261.548
253.83
245.648
237.029
228.006
218.609
208.875
198.839
188.538
178.012
167.301
156.443
145.481
134.453
123.402
112.365
101.381
90.489
79.725
69.123
58.717
48.54
38.62
28.986
19.662
10.673
2.038
-6.223
-14.097
-21.569
-28.63
-35.273
-41.493
-47.288
-52.658
-57.606
-62.137
-66.258
-69.98
-73.313
-76.272
-78.871
-81.128
-83.061
-84.688
-86.032
-87.111
-87.947
-88.563
-88.978
-89.216
-89.298
-89.244
-89.076
-88.813
-88.475
-88.08
-87.646
-87.188
-86.723
-86.262
-85.82
-85.406
-85.031
-84.703
-84.429
-84.214
-84.064
-83.982
-83.97
-84.028
-84.157
-84.354
-84.616
-84.942
-85.325
-85.763
-86.248
-86.776
-87.342
-87.938
-88.559
-89.198
-89.849
-90.506
-91.163
-91.814
-92.454
-93.078
-93.681
-94.262
-94.816
-95.342
-95.838
-96.303
-96.737
-97.141
-97.514
-97.859
-98.177
-98.471
-98.743
-98.998
-99.238
-99.47
-99.696
-99.922
-100.151
-100.39
-100.64
-100.908
-101.196
-101.508
-101.848
-102.22
-102.625
-103.069
-103.551
-104.073
-104.637
-105.243
-105.889
-106.573
-107.291
-108.041
-108.817
-109.614
-110.429
-111.252
-112.078
-112.898
-113.704
-114.488
-115.239
-115.945
-116.598
-117.184
-117.695
-118.12
-118.449
-118.673
-118.781
-118.766
-118.618
-118.33
-117.894
-117.303
-116.55
-115.631
-114.544
-113.286
-111.858
-110.261
-108.499
-106.582
-104.516
-102.312
-99.983
-97.544
-95.013
-92.411
-89.757
-87.065
-84.353
-81.639
-78.943
-76.287
-73.689
-71.162
-68.725
-66.395
-64.198
-62.159
-60.284
-58.569
-57.012
-55.61
-54.374
-53.335
-52.509
-51.901
-51.523
-51.381
-51.486
-51.848
-52.447
-53.221
-54.104
-55.036
-55.992
-56.988
-58.037
-59.13
-60.211
-61.187
-61.984
-62.544
-62.846
-62.849
-62.476
-61.784
-60.967
-60.348
-60.418
-61.585
-63.94
-67.524
-72.371
-78.129
-84.48
-91.098
-97.066
-101.641
-104.615
-105.691
-104.887
-102.958
-100.225
-96.785
-93.589
-91.418
-90.928
-93.314
-98.952
-107.462
-119.154
-134.474
-153.564
-174.964
-194.099
-205.937
-206.159
-194.695
-177.871
-159.024
-136.684
-103.342
-40.045
68.575
227.441
433.81
666.231
896.703
1101.126
1253.543
1340.514
1355.546
1292.826
1157.846
957.294
704.957
426.211
146.282
-106.265
-307.064
-445.183
-518.381
-533.968
-508.962
-461.259
-407.851
-365.483
-340.122
-329.321
-325.614
-315.023
-290.977
-255.396
-214.614
-179.771
-156.209
-143.068
-137.871
-136.289
-136.159
-137.29
-138.411
-138.099
-135.561
-130.327
-122.677
-113.369
-102.879
-91.76
-81.203
-72.494
-66.34
-62.903
-61.807
-62.419
-64.268
-66.933
-69.865
-72.451
-74.259
-75.099
-74.966
-73.969
-72.168
-69.536
-66.01
-61.623
-56.458
-50.633
-44.342
-37.726
-30.906
-24.039
-17.243
-10.604
-4.19
1.994
7.992
13.826
19.519
25.074
30.445
35.62
40.618
45.476
50.266
55.055
59.888
64.822
69.917
75.217
80.755
86.537
92.541
98.755
105.171
111.785
118.606
125.632
132.852
140.253
147.818
155.527
163.358
171.285
179.269
187.277
195.274
203.229
211.114
218.899
226.546
234.019
241.282
248.296
255.023
261.423
267.454
273.076
278.25
282.942
287.116
290.743
293.791
296.234
298.05
299.218
299.721
299.547
298.686
297.131
294.88
291.936
288.305
283.994
279.018
273.394
267.143
260.29
252.863
244.893
236.414
227.464
218.081
208.307
198.184
187.756
177.07
166.173
155.112
143.936
132.692
121.428
110.19
99.023
87.971
77.076
66.376
55.91
45.712
35.814
26.245
17.033
8.199
-0.235
-8.253
-15.842
-22.991
-29.693
-35.943
-41.741
-47.088
-51.989
-56.45
-60.482
-64.097
-67.309
-70.134
-72.59
-74.698
-76.479
-77.955
-79.149
-80.085
-80.788
-81.282
-81.592
-81.741
-81.755
-81.655
-81.466
-81.208
-80.903
-80.569
-80.224
-79.886
-79.568
-79.284
-79.045
-78.863
-78.744
-78.698
-78.73
-78.845
-79.047
-79.338
-79.72
-80.191
-80.752
-81.399
-82.129
-82.938
-83.821
-84.772
-85.787
-86.859
-87.982
-89.149
-90.355
-91.59
-92.848
-94.123
-95.406
-96.69
-97.97
-99.239
-100.492
-101.725
-102.934
-104.117
-105.272
-106.398
-107.491
-108.553
-109.582
-110.578
-111.539
-112.464
-113.355
-114.212
-115.037
-115.832
-116.598
-117.338
-118.054
-118.75
-119.426
-120.087
-120.733
-121.366
-121.99
-122.608
-123.225
-123.845
-124.471
-125.108
-125.759
-126.429
-127.117
-127.825
-128.553
-129.296
-130.054
-130.823
-131.599
-132.375
-133.151
-133.922
-134.686
-135.442
-136.189
-136.922
-137.641
-138.34
-139.013
-139.651
-140.241
-140.77
-141.225
-141.595
-141.872
-142.048
-142.112
-142.058
-141.883
-141.583
-141.147
-140.561
-139.799
-138.841
-137.69
-136.36
-134.873
-133.271
-131.585
-129.852
-128.125
-126.439
-124.811
-123.235
-121.672
-120.08
-118.442
-116.767
-115.09
-113.442
-111.815
-110.191
-108.55
-106.836
-105.001
-102.975
-100.639
-97.923
-94.833
-91.428
-87.853
-84.263
-80.763
-77.424
-74.284
-71.357
-68.685
-66.283
-64.15
-62.328
-60.873
-59.889
-59.547
-59.94
-61.047
-62.773
-64.923
-67.292
-69.741
-72.145
-74.43
-76.596
-78.682
-80.807
-83.106
-85.649
-88.492
-91.663
-95.141
-98.972
-103.249
-108.116
-113.866
-120.747
-128.818
-137.931
-147.622
-157.254
-166.209
-173.736
-178.91
-181.037
-179.84
-175.839
-170.376
-164.879
-160.808
-159.629
-162.629
-171.204
-184.868
-199.773
-211.46
-215.275
-208.892
-195.519
-176.655
-148.785
-105.124
-32.817
79.52
232.012
419.071
628.228
839.575
1037.073
1201.877
1312.956
1355.893
1318.376
1199.042
1007.438
758.452
476.048
186.786
-80.97
-299.912
-453.629
-539.484
-566.738
-552.541
-515.603
-468.543
-421.346
-381.31
-349.038
-322.907
-297.016
-265.286
-227.936
-189.601
-158.071
-138.199
-129.71
-129.799
-134.128
-140.221
-147.238
-153.521
-157.502
-158.342
-155.673
-149.992
-142.171
-132.67
-121.99
-111.242
-101.716
-94.186
-88.899
-85.603
-83.745
-82.904
-82.725
-82.689
-82.209
-80.914
-78.646
-75.417
-71.388
-66.681
-61.364
-55.537
-49.312
-42.778
-36.003
-29.058
-21.988
-14.875
-7.818
-0.881
5.888
12.461
18.84
25.031
31.051
36.936
42.729
48.457
54.142
59.803
65.456
71.128
76.849
82.645
88.545
94.57
100.743
107.078
113.585
120.267
127.12
134.138
141.31
148.628
156.084
163.67
171.372
179.179
187.074
195.039
203.055
211.098
219.14
227.152
235.103
242.96
250.691
258.261
265.634
272.773
279.642
286.205
292.425
298.268
303.696
308.678
313.179
317.171
320.624
323.513
325.814
327.507
328.575
329.003
328.78
327.9
326.356
324.149
321.28
317.754
313.58
308.768
303.335
297.298
290.678
283.5
275.792
267.584
258.908
249.801
240.298
230.44
220.267
209.821
199.145
188.282
177.276
166.171
155.012
143.841
132.701
121.632
110.675
99.867
89.243
78.837
68.682
58.804
49.232
39.99
31.099
22.578
14.444
6.711
-0.61
-7.509
-13.982
-20.023
-25.633
-30.812
-35.565
-39.897
-43.817
-47.335
-50.464
-53.217
-55.612
-57.665
-59.396
-60.824
-61.97
-62.856
-63.504
-63.936
-64.174
-64.24
-64.154
-63.939
-63.614
-63.199
-62.712
-62.171
-61.592
-60.991
-60.384
-59.782
-59.199
-58.647
-58.134
-57.671
-57.266
-56.926
-56.658
-56.466
-56.355
-56.329
-56.39
-56.54
-56.778
-57.106
-57.521
-58.021
-58.605
-59.268
-60.008
-60.821
-61.701
-62.647
-63.653
-64.716
-65.832
-66.998
-68.21
-69.465
-70.761
-72.095
-73.465
-74.87
-76.308
-77.778
-79.278
-80.808
-82.366
-83.95
-85.558
-87.189
-88.839
-90.507
-92.19
-93.884
-95.587
-97.296
-99.01
-100.724
-102.437
-104.145
-105.845
-107.533
-109.207
-110.861
-112.491
-114.091
-115.657
-117.184
-118.665
-120.093
-121.463
-122.765
-123.993
-125.138
-126.192
-127.146
-127.992
-128.72
-129.325
-129.8
-130.139
-130.335
-130.386
-130.285
-130.031
-129.622
-129.054
-128.327
-127.441
-126.396
-125.195
-123.842
-122.342
-120.7
-118.924
-117.024
-115.01
-112.897
-110.699
-108.433
-106.122
-103.786
-101.445
-99.118
-96.821
-94.572
-92.389
-90.287
-88.279
-86.377
-84.593
-82.943
-81.445
-80.112
-78.941
-77.922
-77.041
-76.287
-75.663
-75.184
-74.858
-74.687
-74.678
-74.849
-75.214
-75.789
-76.556
-77.452
-78.428
-79.438
-80.478
-81.59
-82.782
-84.029
-85.276
-86.423
-87.389
-88.145
-88.613
-88.65
-88.248
-87.503
-86.67
-86.255
-86.682
-88.19
-90.943
-94.997
-100.026
-105.481
-110.696
-114.659
-116.518
-115.704
-111.774
-104.717
-95.349
-84.922
-74.652
-66.002
-60.155
-58.194
-61.597
-71.211
-86.588
-106.84
-131.009
-157.895
-187.089
-215.718
-237.505
-247.92
-243.2
-225.237
-202.662
-176.926
-144.717
-95.94
-11.492
115.024
280.991
477.748
683.974
883.874
1061.231
1194.253
1265.883
1259.339
1168.793
1003.78
783
532.863
278.448
42.583
-154.632
-300.165
-389.986
-431.478
-441.023
-436.703
-428.665
-418.322
-402.023
-374.78
-337.829
-296.695
-256.573
-221.838
-193.952
-172.561
-157.158
-146.914
-140.578
-136.724
-134.674
-134.376
-135.5
-137.364
-138.987
-139.142
-137.463
-134.357
-129.939
-124.222
-117.397
-109.737
-101.94
-95.033
-89.444
-85.083
-81.762
-79.118
-76.885
-74.928
-72.922
-70.413
-67.151
-63.054
-58.175
-52.709
-46.775
-40.418
-33.716
-26.76
-19.65
-12.493
-5.378
1.632
8.494
15.174
21.647
27.894
33.913
39.717
45.344
50.845
56.258
61.607
66.913
72.192
77.469
82.781
88.158
93.629
99.218
104.946
110.832
116.899
123.158
129.613
136.263
143.101
150.121
157.321
164.694
172.233
179.927
187.76
195.716
203.777
211.919
220.116
228.336
236.546
244.709
252.791
260.753
268.556
276.159
283.521
290.602
297.36
303.756
309.748
315.297
320.367
324.921
328.925
332.348
335.163
337.342
338.866
339.715
339.875
339.335
338.088
336.129
333.461
330.086
326.015
321.258
315.833
309.759
303.061
295.766
287.906
279.515
270.631
261.294
251.546
241.433
230.999
220.293
209.362
198.257
187.026
175.719
164.385
153.072
141.827
130.696
119.723
108.948
98.412
88.151
78.199
68.587
59.344
50.496
42.063
34.065
26.519
19.436
12.827
6.697
1.051
-4.114
-8.798
-13.008
-16.753
-20.044
-22.894
-25.32
-27.339
-28.972
-30.239
-31.165
-31.773
-32.088
-32.136
-31.944
-31.537
-30.943
-30.187
-29.296
-28.294
-27.205
-26.054
-24.861
-23.65
-22.438
-21.246
-20.089
-18.985
-17.947
-16.987
-16.119
-15.35
-14.69
-14.145
-13.721
-13.421
-13.248
-13.202
-13.284
-13.491
-13.823
-14.274
-14.841
-15.518
-16.301
-17.183
-18.158
-19.219
-20.359
-21.571
-22.849
-24.186
-25.575
-27.011
-28.487
-29.999
-31.542
-33.112
-34.705
-36.317
-37.946
-39.588
-41.243
-42.909
-44.584
-46.269
-47.964
-49.669
-51.385
-53.115
-54.859
-56.619
-58.398
-60.197
-62.018
-63.862
-65.729
-67.62
-69.534
-71.47
-73.428
-75.406
-77.4
-79.409
-81.427
-83.449
-85.47
-87.484
-89.483
-91.457
-93.399
-95.299
-97.147
-98.935
-100.651
-102.284
-103.824
-105.258
-106.577
-107.768
-108.821
-109.722
-110.462
-111.031
-111.42
-111.622
-111.631
-111.443
-111.058
-110.479
-109.709
-108.753
-107.618
-106.31
-104.842
-103.222
-101.458
-99.561
-97.542
-95.416
-93.201
-90.92
-88.591
-86.235
-83.872
-81.522
-79.209
-76.954
-74.766
-72.656
-70.642
-68.749
-67.018
-65.489
-64.181
-63.113
-62.299
-61.739
-61.431
-61.354
-61.45
-61.666
-61.953
-62.268
-62.596
-62.917
-63.181
-63.327
-63.279
-62.966
-62.367
-61.47
-60.251
-58.736
-56.987
-55.13
-53.373
-51.909
-50.895
-50.493
-50.853
-52.149
-54.578
-58.28
-63.405
-70.136
-78.499
-88.43
-99.706
-111.755
-123.945
-135.701
-146.231
-154.681
-160.494
-163.265
-163.192
-161.365
-158.774
-156.136
-154.491
-154.839
-157.855
-164.296
-172.319
-176.844
-173.58
-158.311
-130.076
-94.307
-53.597
-7.292
48.508
127.802
241.99
394.607
584.285
794.293
1000.29
1177.329
1298.192
1343.97
1306.062
1186.686
997.718
755.544
480.963
194.765
-78.687
-309.855
-475.22
-561.663
-571.651
-528.392
-463.621
-404.504
-368.529
-355.949
-353.173
-345.156
-322.104
-283.736
-239.668
-202.444
-178.823
-169.03
-169.104
-173.135
-178.052
-183.408
-188.304
-191.239
-191.134
-187.474
-180.609
-171.736
-161.688
-150.832
-140.029
-130.567
-123.254
-118.44
-116.045
-115.449
-116.123
-117.717
-119.654
-121.292
-122.224
-122.206
-121.179
-119.271
-116.569
-113.123
-109.045
-104.445
-99.404
-93.994
-88.254
-82.224
-75.985
-69.642
-63.304
-57.048
-50.916
-44.93
-39.093
-33.401
-27.836
-22.363
-16.935
-11.523
-6.105
-0.664
4.817
10.361
15.999
21.757
27.666
33.747
40.018
46.49
53.171
60.06
67.152
74.438
81.902
89.533
97.319
105.247
113.301
121.464
129.717
138.036
146.399
154.777
163.141
171.457
179.692
187.812
195.78
203.56
211.117
218.414
225.415
232.083
238.385
244.285
249.749
254.745
259.243
263.212
266.625
269.458
271.686
273.292
274.256
274.567
274.213
273.186
271.484
269.104
266.049
262.326
257.943
252.913
247.251
240.977
234.114
226.688
218.727
210.263
201.331
191.966
182.206
172.092
161.664
150.965
140.036
128.922
117.666
106.313
94.908
83.493
72.111
60.806
49.616
38.583
27.742
17.13
6.78
-3.276
-13.009
-22.393
-31.403
-40.018
-48.219
-55.99
-63.318
-70.193
-76.608
-82.558
-88.044
-93.066
-97.629
-101.741
-105.411
-108.651
-111.475
-113.899
-115.942
-117.624
-118.965
-119.988
-120.717
-121.176
-121.391
-121.387
-121.19
-120.824
-120.315
-119.687
-118.965
-118.172
-117.33
-116.461
-115.586
-114.722
-113.89
-113.104
-112.379
-111.729
-111.164
-110.694
-110.328
-110.07
-109.925
-109.895
-109.982
-110.183
-110.497
-110.92
-111.446
-112.068
-112.778
-113.567
-114.425
-115.343
-116.308
-117.31
-118.339
-119.382
-120.429
-121.471
-122.495
-123.495
-124.459
-125.382
-126.255
-127.072
-127.828
-128.519
-129.141
-129.693
-130.174
-130.582
-130.918
-131.185
-131.384
-131.52
-131.597
-131.619
-131.592
-131.524
-131.422
-131.294
-131.147
-130.991
-130.834
-130.685
-130.551
-130.44
-130.36
-130.316
-130.313
-130.357
-130.452
-130.6
-130.801
-131.056
-131.362
-131.718
-132.118
-132.557
-133.027
-133.519
-134.026
-134.537
-135.043
-135.532
-135.993
-136.415
-136.785
-137.092
-137.323
-137.465
-137.506
-137.434
-137.239
-136.911
-136.443
-135.827
-135.058
-134.136
-133.06
-131.831
-130.45
-128.922
-127.255
-125.46
-123.55
-121.537
-119.436
-117.262
-115.031
-112.768
-110.492
-108.218
-105.962
-103.74
-101.569
-99.475
-97.476
-95.577
-93.782
-92.096
-90.526
-89.097
-87.828
-86.722
-85.784
-85.019
-84.431
-84.034
-83.825
-83.776
-83.849
-84.001
-84.201
-84.45
-84.755
-85.121
-85.53
-85.936
-86.284
-86.54
-86.663
-86.617
-86.358
-85.825
-85.086
-84.345
-83.911
-84.197
-85.57
-88.269
-92.464
-98.256
-105.425
-113.522
-121.867
-129.431
-135.228
-138.377
-138.212
-134.444
-127.395
-117.852
-106.906
-96.067
-87.022
-81.832
-82.442
-90.087
-104.963
-126.372
-153.314
-184.432
-217.617
-247.868
-268.191
-272.816
-258.093
-225.697
-180.217
-121.656
-46.042
53.956
185.625
347.195
529.567
720.349
906.052
1075.369
1215.354
1309.331
1337.649
1283.995
1144.16
926.656
655.133
360.933
74.738
-173.825
-366.573
-495.254
-560.992
-577.168
-557.247
-516.776
-469.576
-421.499
-378.659
-340.215
-301.11
-260.48
-216.499
-173.081
-138.575
-115.97
-106.264
-107.447
-113.876
-122.557
-131.829
-139.123
-142.838
-142.051
-136.222
-126.105
-113.114
-98.304
-82.732
-67.94
-55.451
-46.205
-40.563
-38.25
-38.524
-40.642
-43.948
-47.719
-51.261
-54.159
-56.193
-57.291
-57.55
-57.041
-55.781
-53.785
-51.02
-47.428
-43.014
-37.837
-32.011
-25.749
-19.243
-12.63
-6.031
0.482
6.873
13.111
19.209
25.216
31.166
37.056
42.849
48.504
54.012
59.404
64.738
70.094
75.538
81.125
86.915
92.951
99.258
105.848
112.703
119.793
127.096
134.601
142.301
150.197
158.276
166.518
174.901
183.396
191.973
200.598
209.225
217.813
226.322
234.712
242.95
251.005
258.84
266.42
273.708
280.667
287.259
293.447
299.192
304.455
309.201
313.397
317.014
320.026
322.408
324.141
325.207
325.595
325.295
324.3
322.609
320.222
317.145
313.385
308.956
303.873
298.156
291.829
284.918
277.455
269.472
261.006
252.094
242.775
233.092
223.087
212.803
202.285
191.579
180.731
169.787
158.795
147.801
136.849
125.983
115.246
104.676
94.313
84.19
74.343
64.8
55.589
46.736
38.264
30.19
22.532
15.301
8.508
2.159
-3.744
-9.199
-14.211
-18.783
-22.925
-26.647
-29.961
-32.88
-35.423
-37.606
-39.449
-40.974
-42.201
-43.155
-43.859
-44.337
-44.613
-44.712
-44.658
-44.474
-44.183
-43.808
-43.371
-42.893
-42.394
-41.892
-41.406
-40.951
-40.542
-40.192
-39.914
-39.715
-39.605
-39.59
-39.674
-39.863
-40.157
-40.559
-41.068
-41.682
-42.4
-43.219
-44.133
-45.139
-46.231
-47.402
-48.648
-49.961
-51.334
-52.763
-54.241
-55.761
-57.317
-58.904
-60.516
-62.145
-63.788
-65.439
-67.094
-68.747
-70.396
-72.037
-73.668
-75.287
-76.894
-78.487
-80.065
-81.628
-83.178
-84.715
-86.239
-87.751
-89.254
-90.748
-92.237
-93.722
-95.204
-96.685
-98.165
-99.644
-101.123
-102.6
-104.072
-105.537
-106.992
-108.435
-109.863
-111.271
-112.656
-114.013
-115.336
-116.62
-117.86
-119.047
-120.175
-121.235
-122.221
-123.124
-123.937
-124.652
-125.26
-125.753
-126.124
-126.366
-126.471
-126.431
-126.238
-125.888
-125.375
-124.695
-123.846
-122.827
-121.639
-120.289
-118.783
-117.13
-115.34
-113.424
-111.394
-109.264
-107.047
-104.753
-102.392
-99.977
-97.52
-95.039
-92.554
-90.082
-87.641
-85.248
-82.92
-80.677
-78.536
-76.498
-74.57
-72.76
-71.086
-69.581
-68.28
-67.202
-66.365
-65.783
-65.458
-65.385
-65.542
-65.872
-66.321
-66.837
-67.377
-67.924
-68.457
-68.931
-69.291
-69.465
-69.376
-68.99
-68.273
-67.189
-65.755
-64.035
-62.145
-60.279
-58.605
-57.263
-56.401
-56.148
-56.641
-58.047
-60.485
-64.129
-69.256
-75.993
-84.356
-94.205
-104.985
-115.992
-126.556
-135.741
-142.476
-146.128
-146.34
-143.3
-138.456
-133.638
-130.508
-131.144
-136.421
-145.169
-156.096
-166.683
-175.748
-185.241
-195.047
-202.762
-199.03
-168.211
-98.039
19.214
179.04
368.192
573.532
778.449
970.539
1134.95
1252.099
1309.184
1293.709
1205.166
1053.839
847.71
605.514
347.48
95.172
-119.683
-277.019
-371.399
-410.057
-417.28
-415.177
-413.105
-411.648
-402.831
-379.516
-343.237
-299.265
-254.002
-212.938
-177.738
-149.023
-127.537
-112.876
-104.382
-101.292
-102.474
-107.096
-114.246
-122.051
-128.406
-132.083
-132.599
-130.056
-124.946
-117.667
-108.714
-99.209
-90.536
-83.531
-78.49
-75.3
-73.493
-72.643
-72.432
-72.352
-71.802
-70.438
-68.103
-64.796
-60.704
-55.971
-50.662
-44.89
-38.767
-32.367
-25.783
-19.09
-12.343
-5.631
0.974
7.43
13.697
19.762
25.635
31.325
36.869
42.314
47.691
53.022
58.323
63.606
68.894
74.216
79.6
85.074
90.665
96.393
102.281
108.347
114.597
121.035
127.656
134.452
141.418
148.55
155.843
163.289
170.877
178.594
186.426
194.354
202.356
210.407
218.475
226.53
234.537
242.463
250.272
257.926
265.389
272.621
279.585
286.242
292.554
298.483
303.991
309.042
313.603
317.641
321.124
324.025
326.319
327.983
328.997
329.347
329.02
328.005
326.298
323.897
320.802
317.02
312.56
307.435
301.661
295.26
288.256
280.679
272.559
263.93
254.83
245.299
235.377
225.109
214.54
203.715
192.682
181.489
170.185
158.819
147.437
136.089
124.82
113.675
102.698
91.929
81.409
71.174
61.258
51.693
42.509
33.732
25.384
17.486
10.054
3.102
-3.36
-9.326
-14.793
-19.76
-24.231
-28.211
-31.711
-34.74
-37.315
-39.452
-41.169
-42.49
-43.437
-44.037
-44.315
-44.301
-44.023
-43.511
-42.795
-41.906
-40.872
-39.723
-38.489
-37.198
-35.876
-34.551
-33.247
-31.989
-30.799
-29.697
-28.702
-27.831
-27.099
-26.519
-26.103
-25.859
-25.796
-25.919
-26.232
-26.738
-27.437
-28.327
-29.404
-30.664
-32.1
-33.703
-35.464
-37.372
-39.417
-41.585
-43.867
-46.248
-48.717
-51.261
-53.868
-56.526
-59.222
-61.946
-64.685
-67.428
-70.167
-72.892
-75.596
-78.273
-80.915
-83.519
-86.078
-88.591
-91.053
-93.461
-95.814
-98.109
-100.346
-102.526
-104.649
-106.719
-108.736
-110.705
-112.628
-114.509
-116.352
-118.157
-119.926
-121.661
-123.362
-125.028
-126.659
-128.252
-129.806
-131.321
-132.796
-134.227
-135.611
-136.943
-138.217
-139.429
-140.571
-141.631
-142.598
-143.46
-144.205
-144.828
-145.321
-145.674
-145.88
-145.93
-145.818
-145.545
-145.104
-144.481
-143.663
-142.63
-141.383
-139.948
-138.346
-136.587
-134.691
-132.676
-130.566
-128.405
-126.211
-123.973
-121.681
-119.318
-116.894
-114.451
-112.03
-109.672
-107.389
-105.155
-102.962
-100.829
-98.751
-96.71
-94.667
-92.551
-90.365
-88.198
-86.135
-84.256
-82.596
-81.134
-79.872
-78.816
-77.983
-77.407
-77.076
-76.946
-77.025
-77.351
-77.975
-78.986
-80.355
-81.947
-83.671
-85.439
-87.19
-88.904
-90.489
-91.864
-93.057
-94.111
-95.065
-96.05
-97.174
-98.605
-100.756
-103.964
-108.317
-113.903
-120.735
-128.552
-137.061
-145.666
-153.019
-157.765
-159.13
-156.643
-150.281
-140.53
-127.745
-112.846
-98.344
-87.011
-80.925
-81.709
-89.827
-105.131
-128.221
-157.109
-185.612
-207.684
-217.36
-213.53
-202.093
-183.926
-154.2
-101.806
-10.528
124.822
297.564
493.35
693.202
884.36
1057.557
1200.843
1299.337
1331.824
1280.666
1141.614
921.222
644.181
346.215
60.13
-179.479
-352.36
-460.901
-513.161
-528.408
-525.56
-504.78
-468.222
-419.996
-361.856
-307.994
-266.482
-233.102
-205.995
-179.366
-151.412
-129.064
-115.355
-111.034
-114.715
-121.491
-128.353
-133.523
-135.361
-133.613
-128.375
-120.057
-109.736
-98.399
-86.955
-76.546
-68.269
-62.696
-59.857
-59.424
-60.804
-63.389
-66.678
-70.093
-73.013
-75.073
-76.136
-76.147
-75.17
-73.224
-70.224
-66.193
-61.245
-55.502
-49.152
-42.355
-35.205
-27.852
-20.46
-13.142
-5.99
0.959
7.734
14.339
20.761
26.991
32.994
38.758
44.303
49.661
54.892
60.055
65.199
70.378
75.655
81.077
86.677
92.468
98.434
104.566
110.864
117.327
123.962
130.77
137.744
144.876
152.154
159.565
167.093
174.716
182.406
190.136
197.877
205.605
213.296
220.926
228.464
235.878
243.134
250.199
257.038
263.613
269.886
275.817
281.37
286.508
291.198
295.407
299.106
302.264
304.855
306.855
308.243
309.002
309.114
308.567
307.351
305.46
302.891
299.644
295.724
291.138
285.899
280.02
273.522
266.426
258.758
250.548
241.825
232.624
222.982
212.938
202.531
191.805
180.805
169.576
158.164
146.616
134.977
123.294
111.612
99.976
88.428
77.009
65.761
54.721
43.927
33.411
23.207
13.345
3.85
-5.252
-13.94
-22.196
-30.003
-37.35
-44.226
-50.626
-56.545
-61.983
-66.941
-71.424
-75.439
-78.996
-82.107
-84.786
-87.05
-88.916
-90.405
-91.537
-92.335
-92.821
-93.019
-92.953
-92.648
-92.128
-91.418
-90.542
-89.525
-88.39
-87.16
-85.859
-84.508
-83.128
-81.738
-80.357
-79.003
-77.692
-76.438
-75.256
-74.156
-73.149
-72.246
-71.454
-70.78
-70.228
-69.804
-69.508
-69.344
-69.311
-69.408
-69.633
-69.984
-70.458
-71.05
-71.756
-72.57
-73.488
-74.503
-75.609
-76.799
-78.066
-79.402
-80.801
-82.255
-83.757
-85.301
-86.878
-88.484
-90.11
-91.753
-93.406
-95.064
-96.723
-98.378
-100.026
-101.663
-103.286
-104.893
-106.482
-108.052
-109.6
-111.126
-112.63
-114.11
-115.567
-116.999
-118.408
-119.794
-121.156
-122.495
-123.811
-125.104
-126.375
-127.624
-128.85
-130.053
-131.233
-132.387
-133.516
-134.618
-135.69
-136.729
-137.732
-138.695
-139.614
-140.484
-141.3
-142.053
-142.739
-143.35
-143.881
-144.324
-144.671
-144.915
-145.049
-145.064
-144.956
-144.717
-144.34
-143.818
-143.149
-142.328
-141.353
-140.222
-138.936
-137.493
-135.898
-134.156
-132.273
-130.259
-128.124
-125.882
-123.549
-121.142
-118.676
-116.164
-113.622
-111.062
-108.501
-105.955
-103.437
-100.964
-98.554
-96.225
-93.993
-91.871
-89.853
-87.933
-86.108
-84.377
-82.757
-81.267
-79.912
-78.706
-77.669
-76.81
-76.146
-75.669
-75.326
-75.076
-74.89
-74.758
-74.726
-74.816
-75.009
-75.28
-75.563
-75.792
-75.958
-75.98
-75.707
-75.134
-74.373
-73.687
-73.569
-74.364
-76.212
-79.345
-83.917
-89.741
-96.377
-102.96
-108.369
-111.944
-113.368
-112.232
-108.315
-101.861
-93.628
-85.113
-77.92
-72.93
-70.631
-71.758
-77.286
-87.823
-103.097
-122.04
-143.501
-166.948
-192.46
-217.544
-236.433
-244.114
-236.1
-214.037
-186.61
-156.218
-120.91
-70.567
15.848
147.077
321.647
529.203
743.136
943.919
1117.395
1246.759
1321.642
1326.781
1246.184
1077.546
832.204
538.185
236.504
-32.782
-242.245
-381.321
-457.02
-488.678
-493.897
-484.651
-467.896
-442.018
-407.109
-366.334
-318.928
-268.623
-218.946
-170.647
-130.469
-102.561
-86.936
-83.968
-90.052
-101.042
-115.264
-130.497
-144.076
-154.006
-158.899
-158.272
-152.875
-143.92
-132.332
-119.185
-106.036
-94.324
-84.935
-78.214
-73.908
-71.462
-70.366
-70.089
-69.999
-69.498
-68.234
-66.083
-63.074
-59.341
-55.006
-50.157
-44.9
-39.352
-33.575
-27.611
-21.508
-15.306
-9.084
-2.947
3.041
8.837
14.414
19.773
24.915
29.847
34.601
39.22
43.728
48.15
52.503
56.801
61.075
65.361
69.692
74.103
78.626
83.286
88.106
93.105
98.291
103.668
109.238
114.997
120.942
127.074
133.387
139.878
146.538
153.355
160.316
167.404
174.599
181.877
189.21
196.568
203.921
211.236
218.479
225.614
232.603
239.408
245.992
252.316
258.34
264.024
269.33
274.221
278.661
282.615
286.053
288.943
291.26
292.981
294.084
294.554
294.377
293.542
292.044
289.878
287.047
283.554
279.408
274.618
269.203
263.18
256.573
249.407
241.713
233.522
224.868
215.79
206.327
196.52
186.411
176.044
165.466
154.721
143.858
132.922
121.96
111.017
100.139
89.368
78.745
68.311
58.102
48.154
38.499
29.167
20.185
11.578
3.366
-4.431
-11.799
-18.724
-25.199
-31.216
-36.772
-41.867
-46.504
-50.688
-54.425
-57.727
-60.604
-63.072
-65.147
-66.847
-68.192
-69.204
-69.905
-70.321
-70.474
-70.392
-70.099
-69.622
-68.987
-68.217
-67.34
-66.378
-65.355
-64.292
-63.212
-62.135
-61.077
-60.058
-59.092
-58.193
-57.374
-56.646
-56.017
-55.497
-55.09
-54.804
-54.641
-54.604
-54.694
-54.911
-55.255
-55.722
-56.309
-57.012
-57.826
-58.743
-59.756
-60.859
-62.042
-63.296
-64.614
-65.986
-67.403
-68.855
-70.335
-71.833
-73.342
-74.853
-76.359
-77.853
-79.33
-80.785
-82.212
-83.608
-84.97
-86.295
-87.581
-88.827
-90.031
-91.193
-92.314
-93.393
-94.432
-95.433
-96.398
-97.33
-98.232
-99.109
-99.965
-100.803
-101.628
-102.445
-103.258
-104.073
-104.894
-105.725
-106.571
-107.436
-108.325
-109.24
-110.185
-111.162
-112.171
-113.215
-114.292
-115.402
-116.542
-117.71
-118.904
-120.119
-121.352
-122.598
-123.851
-125.104
-126.351
-127.582
-128.789
-129.962
-131.09
-132.163
-133.169
-134.098
-134.938
-135.678
-136.305
-136.808
-137.177
-137.4
-137.467
-137.367
-137.092
-136.633
-135.984
-135.139
-134.095
-132.85
-131.404
-129.76
-127.925
-125.905
-123.708
-121.346
-118.83
-116.173
-113.392
-110.497
-107.503
-104.427
-101.285
-98.099
-94.892
-91.685
-88.502
-85.364
-82.296
-79.318
-76.451
-73.704
-71.088
-68.617
-66.309
-64.198
-62.314
-60.676
-59.305
-58.215
-57.412
-56.894
-56.644
-56.615
-56.764
-57.049
-57.437
-57.912
-58.453
-59.026
-59.579
-60.045
-60.358
-60.473
-60.343
-59.924
-59.212
-58.238
-57.097
-55.942
-54.902
-54.099
-53.659
-53.694
-54.327
-55.696
-57.898
-61.07
-65.46
-71.239
-78.437
-86.954
-96.376
-106.113
-115.575
-123.964
-130.212
-133.478
-133.434
-130.237
-124.753
-118.542
-113.251
-110.605
-113.075
-121.269
-132.701
-144.902
-154.658
-161.136
-169.243
-180.116
-187.689
-180.083
-137.596
-45.155
97.494
281.762
491.015
705.001
911.39
1097.277
1244.906
1340.455
1367.421
1315.686
1191.068
1002.122
765.294
503.603
237.626
-6.459
-205.16
-347.238
-431.83
-469.898
-475.555
-458.118
-422.796
-374.035
-321.405
-276.395
-246.416
-231.226
-220.858
-205.082
-180.635
-150.708
-123.47
-104.815
-95.129
-92.031
-92.318
-94.044
-96.468
-98.844
-100.164
-99.64
-97.156
-92.926
-87.111
-79.983
-71.982
-63.851
-56.716
-51.24
-47.455
-45.178
-44.015
-43.57
-43.582
-43.658
-43.265
-42.104
-40.07
-37.163
-33.551
-29.361
-24.645
-19.496
-14.023
-8.299
-2.417
3.547
9.538
15.476
21.3
26.976
32.473
37.785
42.924
47.908
52.777
57.58
62.349
67.108
71.879
76.676
81.527
86.461
91.505
96.685
102.025
107.542
113.253
119.172
125.302
131.64
138.179
144.905
151.81
158.885
166.117
173.494
181
188.616
196.324
204.101
211.922
219.759
227.579
235.351
243.041
250.616
258.041
265.28
272.299
279.061
285.531
291.677
297.462
302.855
307.822
312.335
316.362
319.879
322.86
325.283
327.126
328.374
329.012
329.028
328.414
327.164
325.278
322.754
319.599
315.818
311.422
306.424
300.839
294.687
287.989
280.77
273.054
264.871
256.251
247.225
237.826
228.09
218.052
207.747
197.213
186.487
175.607
164.609
153.532
142.412
131.287
120.192
109.163
98.232
87.434
76.799
66.356
56.134
46.159
36.453
27.04
17.939
9.168
0.742
-7.324
-15.02
-22.335
-29.263
-35.797
-41.935
-47.675
-53.018
-57.965
-62.522
-66.692
-70.485
-73.907
-76.97
-79.684
-82.064
-84.121
-85.873
-87.334
-88.522
-89.455
-90.15
-90.628
-90.906
-91.004
-90.939
-90.732
-90.399
-89.959
-89.427
-88.821
-88.156
-87.446
-86.705
-85.946
-85.18
-84.419
-83.671
-82.945
-82.249
-81.59
-80.972
-80.401
-79.879
-79.41
-78.995
-78.634
-78.327
-78.073
-77.87
-77.713
-77.6
-77.525
-77.484
-77.47
-77.478
-77.501
-77.533
-77.568
-77.6
-77.624
-77.635
-77.629
-77.602
-77.552
-77.476
-77.373
-77.241
-77.082
-76.897
-76.686
-76.452
-76.198
-75.929
-75.648
-75.359
-75.069
-74.782
-74.505
-74.242
-74
-73.787
-73.607
-73.468
-73.377
-73.34
-73.363
-73.455
-73.62
-73.863
-74.188
-74.6
-75.1
-75.689
-76.367
-77.132
-77.98
-78.908
-79.91
-80.981
-82.112
-83.293
-84.516
-85.768
-87.039
-88.316
-89.583
-90.829
-92.038
-93.197
-94.294
-95.314
-96.245
-97.075
-97.792
-98.386
-98.846
-99.163
-99.326
-99.329
-99.164
-98.829
-98.319
-97.633
-96.772
-95.743
-94.555
-93.221
-91.754
-90.169
-88.483
-86.714
-84.883
-83.014
-81.122
-79.227
-77.349
-75.511
-73.741
-72.065
-70.506
-69.083
-67.814
-66.715
-65.804
-65.095
-64.587
-64.289
-64.204
-64.344
-64.74
-65.419
-66.392
-67.673
-69.258
-71.134
-73.291
-75.698
-78.294
-81.03
-83.843
-86.685
-89.528
-92.311
-94.98
-97.487
-99.741
-101.686
-103.267
-104.388
-105.012
-105.176
-104.933
-104.427
-103.793
-103.038
-102.346
-102.059
-102.461
-103.871
-106.341
-109.678
-114.048
-119.774
-126.759
-134.462
-141.832
-147.686
-151.675
-153.639
-152.938
-149.167
-141.972
-133.169
-126.244
-122.693
-123.877
-128.234
-132.506
-138.476
-146.741
-158.371
-176.89
-199.53
-222.805
-241.48
-241.776
-210.447
-135.396
-8.315
166.262
376.979
606.033
832.367
1037.564
1201.258
1308.929
1348.874
1310.705
1196.099
1007.771
757.415
472.644
181.966
-78.253
-277.201
-406.331
-469.13
-484.766
-476.373
-457.299
-436.601
-415.008
-392.05
-368.386
-340.61
-308.537
-271.426
-230.378
-192.843
-163.443
-144.465
-135.98
-133.719
-134.707
-138.295
-143.688
-150.127
-156.393
-160.556
-161.676
-160.048
-156.094
-150.084
-142.433
-133.705
-124.764
-116.85
-110.637
-106.102
-103.046
-101.085
-99.821
-98.987
-98.182
-96.865
-94.75
-91.751
-87.884
-83.326
-78.215
-72.608
-66.61
-60.335
-53.863
-47.291
-40.697
-34.135
-27.689
-21.423
-15.374
-9.578
-4.045
1.232
6.265
11.089
15.747
20.266
24.67
28.978
33.205
37.379
41.532
45.694
49.897
54.166
58.527
63.003
67.616
72.376
77.292
82.363
87.588
92.967
98.502
104.19
110.031
116.017
122.14
128.391
134.758
141.222
147.765
154.361
160.985
167.608
174.202
180.736
187.177
193.49
199.644
205.601
211.329
216.791
221.953
226.779
231.236
235.292
238.915
242.075
244.745
246.9
248.517
249.576
250.062
249.96
249.258
247.951
246.033
243.504
240.366
236.625
232.29
227.373
221.891
215.864
209.315
202.27
194.757
186.809
178.458
169.742
160.697
151.363
141.779
131.988
122.03
111.95
101.788
91.588
81.392
71.24
61.173
51.23
41.447
31.861
22.505
13.41
4.607
-3.877
-12.017
-19.792
-27.18
-34.165
-40.732
-46.87
-52.569
-57.824
-62.631
-66.989
-70.901
-74.37
-77.405
-80.013
-82.208
-84.002
-85.411
-86.453
-87.147
-87.512
-87.571
-87.345
-86.857
-86.13
-85.189
-84.058
-82.761
-81.321
-79.764
-78.112
-76.389
-74.616
-72.817
-71.011
-69.218
-67.456
-65.744
-64.097
-62.531
-61.059
-59.694
-58.445
-57.324
-56.338
-55.492
-54.792
-54.241
-53.839
-53.589
-53.487
-53.533
-53.723
-54.053
-54.518
-55.113
-55.831
-56.665
-57.607
-58.65
-59.785
-61.004
-62.296
-63.655
-65.069
-66.532
-68.034
-69.568
-71.125
-72.698
-74.279
-75.86
-77.435
-78.998
-80.541
-82.06
-83.55
-85.006
-86.425
-87.805
-89.144
-90.439
-91.689
-92.893
-94.05
-95.16
-96.222
-97.234
-98.195
-99.104
-99.963
-100.769
-101.523
-102.222
-102.866
-103.453
-103.98
-104.446
-104.845
-105.174
-105.43
-105.607
-105.704
-105.715
-105.636
-105.464
-105.194
-104.823
-104.349
-103.768
-103.073
-102.261
-101.33
-100.278
-99.102
-97.803
-96.38
-94.838
-93.183
-91.426
-89.574
-87.636
-85.621
-83.539
-81.403
-79.227
-77.025
-74.81
-72.597
-70.403
-68.253
-66.166
-64.16
-62.249
-60.442
-58.751
-57.188
-55.762
-54.478
-53.342
-52.357
-51.533
-50.893
-50.442
-50.182
-50.115
-50.233
-50.524
-50.982
-51.583
-52.292
-53.083
-53.928
-54.802
-55.688
-56.548
-57.348
-58.062
-58.67
-59.174
-59.559
-59.789
-59.816
-59.628
-59.292
-58.883
-58.431
-58.027
-57.845
-58.167
-59.5
-62.329
-66.725
-72.702
-80.33
-89.214
-98.832
-108.395
-116.226
-120.717
-121.186
-117.141
-108.338
-95.595
-79.891
-62.713
-47.144
-36.381
-32.638
-37.702
-52.928
-77.138
-106.905
-138.497
-166.492
-187.774
-205.116
-219.101
-225.381
-215.322
-172.134
-81.486
57.504
238.255
445.99
659.936
867.204
1053.92
1201.325
1296.637
1322.707
1267.396
1134.998
931.623
675.226
395.366
118.564
-122.357
-301.114
-412.688
-463.807
-476.367
-476.304
-474.579
-472.37
-462.76
-436.926
-395.757
-345.376
-293.076
-245.537
-205.013
-171.939
-146.915
-129.571
-119.224
-114.734
-114.468
-117.568
-123.201
-129.909
-136.124
-140.224
-141.342
-139.659
-135.634
-129.589
-121.987
-113.48
-104.953
-97.567
-91.918
-87.96
-85.427
-83.868
-82.902
-82.26
-81.548
-80.272
-78.156
-75.122
-71.221
-66.65
-61.539
-55.944
-49.955
-43.665
-37.17
-30.573
-23.954
-17.379
-10.896
-4.536
1.677
7.727
13.618
19.366
25.006
30.589
36.151
41.713
47.295
52.906
58.569
64.314
70.169
76.159
82.306
88.626
95.135
101.85
108.776
115.914
123.256
130.79
138.504
146.392
154.443
162.644
170.981
179.435
187.985
196.611
205.284
213.976
222.653
231.279
239.818
248.232
256.484
264.534
272.343
279.871
287.079
293.929
300.383
306.403
311.952
316.997
321.505
325.446
328.79
331.512
333.589
335.001
335.731
335.767
335.099
333.721
331.63
328.828
325.32
321.116
316.227
310.67
304.464
297.634
290.206
282.211
273.682
264.654
255.167
245.262
234.98
224.365
213.463
202.318
190.978
179.488
167.895
156.246
144.586
132.959
121.409
109.978
98.707
87.634
76.795
66.225
55.954
46.011
36.423
27.211
18.397
9.997
2.026
-5.506
-12.589
-19.22
-25.396
-31.117
-36.387
-41.214
-45.605
-49.572
-53.13
-56.293
-59.078
-61.506
-63.596
-65.368
-66.846
-68.052
-69.009
-69.741
-70.273
-70.628
-70.831
-70.904
-70.872
-70.755
-70.574
-70.351
-70.102
-69.846
-69.598
-69.375
-69.188
-69.05
-68.973
-68.964
-69.032
-69.182
-69.418
-69.742
-70.155
-70.656
-71.244
-71.915
-72.667
-73.494
-74.392
-75.356
-76.381
-77.461
-78.59
-79.761
-80.968
-82.204
-83.461
-84.731
-86.009
-87.288
-88.563
-89.83
-91.085
-92.325
-93.547
-94.75
-95.93
-97.086
-98.218
-99.325
-100.408
-101.467
-102.507
-103.529
-104.54
-105.542
-106.542
-107.543
-108.549
-109.562
-110.586
-111.619
-112.662
-113.714
-114.772
-115.834
-116.9
-117.969
-119.04
-120.115
-121.192
-122.27
-123.349
-124.423
-125.487
-126.53
-127.54
-128.501
-129.402
-130.232
-130.979
-131.636
-132.19
-132.635
-132.969
-133.183
-133.268
-133.209
-132.979
-132.558
-131.948
-131.157
-130.207
-129.14
-127.989
-126.789
-125.595
-124.444
-123.355
-122.334
-121.347
-120.356
-119.348
-118.33
-117.337
-116.406
-115.537
-114.722
-113.946
-113.159
-112.322
-111.383
-110.239
-108.816
-107.11
-105.152
-103.064
-101.019
-99.124
-97.458
-96.069
-94.98
-94.246
-93.917
-94.005
-94.536
-95.54
-97.072
-99.271
-102.245
-106.002
-110.483
-115.516
-120.848
-126.297
-131.72
-136.983
-141.979
-146.624
-150.883
-154.826
-158.577
-162.22
-165.756
-169.127
-172.311
-175.374
-178.452
-181.736
-185.392
-189.628
-194.773
-201.037
-208.443
-216.756
-225.319
-233.362
-240.241
-245.123
-246.978
-245.192
-239.651
-230.903
-220.416
-209.943
-201.022
-195.391
-195.305
-200.54
-207.939
-214.396
-215.446
-211.395
-208.623
-206.65
-199.253
-171.837
-101.74
20.12
188.445
387.626
593.288
789.612
969.527
1126.281
1251.015
1328.238
1338.657
1268.228
1115.209
890.539
617.647
329.834
60.002
-164.457
-327.292
-429.967
-483.937
-503.245
-500.915
-482.41
-450.969
-414.174
-379.659
-353.991
-338.608
-325.906
-308.224
-282.789
-252.192
-224.088
-203.609
-190.83
-183.441
-178.176
-173.376
-168.845
-163.754
-156.952
-147.793
-136.249
-122.88
-108.276
-92.8
-76.907
-61.668
-48.505
-38.305
-31.359
-27.48
-26.181
-27.061
-29.752
-33.667
-38.083
-42.421
-46.269
-49.443
-51.934
-53.703
-54.667
-54.714
-53.776
-51.83
-48.877
-44.955
-40.114
-34.421
-27.981
-20.934
-13.422
-5.599
2.367
10.38
18.377
26.312
34.154
41.841
49.313
56.552
63.564
70.367
76.986
83.438
89.739
95.944
102.114
108.312
114.61
121.049
127.648
134.425
141.386
148.539
155.888
163.418
171.102
178.918
186.845
194.865
202.961
211.101
219.246
227.36
235.401
243.332
251.117
258.719
266.1
273.227
280.067
286.59
292.769
298.574
303.972
308.934
313.428
317.424
320.897
323.82
326.169
327.923
329.066
329.585
329.469
328.712
327.309
325.26
322.568
319.238
315.28
310.705
305.528
299.768
293.446
286.587
279.219
271.371
263.074
254.362
245.27
235.835
226.094
216.086
205.852
195.432
184.866
174.198
163.468
152.717
141.985
131.313
120.74
110.301
100.033
89.968
80.139
70.574
61.301
52.345
43.727
35.467
27.583
20.088
12.995
6.312
0.046
-5.799
-11.222
-16.224
-20.808
-24.98
-28.746
-32.117
-35.104
-37.719
-39.979
-41.898
-43.495
-44.789
-45.799
-46.546
-47.051
-47.335
-47.422
-47.332
-47.089
-46.715
-46.23
-45.656
-45.015
-44.324
-43.604
-42.871
-42.143
-41.434
-40.757
-40.126
-39.551
-39.042
-38.606
-38.251
-37.982
-37.802
-37.716
-37.724
-37.828
-38.026
-38.317
-38.698
-39.167
-39.718
-40.348
-41.051
-41.82
-42.649
-43.532
-44.462
-45.431
-46.432
-47.459
-48.504
-49.562
-50.625
-51.689
-52.747
-53.795
-54.83
-55.847
-56.845
-57.821
-58.775
-59.706
-60.614
-61.501
-62.367
-63.215
-64.045
-64.861
-65.665
-66.458
-67.244
-68.024
-68.8
-69.575
-70.35
-71.127
-71.908
-72.692
-73.481
-74.273
-75.068
-75.864
-76.657
-77.446
-78.225
-78.989
-79.735
-80.457
-81.148
-81.799
-82.404
-82.953
-83.44
-83.856
-84.19
-84.435
-84.581
-84.622
-84.55
-84.361
-84.048
-83.608
-83.041
-82.349
-81.534
-80.599
-79.55
-78.393
-77.137
-75.789
-74.357
-72.848
-71.272
-69.639
-67.962
-66.26
-64.546
-62.838
-61.152
-59.502
-57.908
-56.388
-54.945
-53.589
-52.331
-51.188
-50.195
-49.382
-48.768
-48.368
-48.2
-48.264
-48.562
-49.078
-49.765
-50.581
-51.484
-52.442
-53.444
-54.474
-55.489
-56.435
-57.239
-57.831
-58.181
-58.259
-58.022
-57.475
-56.662
-55.684
-54.718
-53.921
-53.402
-53.281
-53.679
-54.733
-56.616
-59.462
-63.404
-68.653
-75.351
-83.505
-92.947
-103.205
-113.633
-123.575
-132.239
-138.67
-142.116
-142.249
-139.462
-134.877
-129.813
-125.773
-124.417
-127.435
-136.669
-151.598
-168.147
-181.885
-187.789
-184.044
-175.361
-163.056
-144.05
-110.964
-45.926
65.121
225.867
433.966
670.129
907.924
1123.316
1288.15
1384.31
1401.602
1333.254
1185.809
969.412
701.64
409.488
120.997
-133.158
-330.855
-462.069
-529.66
-546.075
-521.722
-469.742
-400.251
-325.456
-266.186
-232.162
-224.908
-235.569
-242.539
-235.161
-213.365
-183.269
-157.698
-142.015
-134.696
-133.457
-134.379
-135.604
-136.912
-137.267
-136.196
-133.75
-129.997
-125.101
-119.159
-112.297
-105.16
-98.869
-94.134
-91.082
-89.503
-88.939
-88.994
-89.452
-89.952
-89.954
-89.129
-87.327
-84.528
-80.912
-76.622
-71.707
-66.259
-60.385
-54.165
-47.71
-41.117
-34.457
-27.834
-21.325
-14.978
-8.84
-2.929
2.757
8.228
13.518
18.68
23.746
28.738
33.675
38.569
43.448
48.345
53.289
58.311
63.437
68.688
74.09
79.659
85.407
91.337
97.446
103.725
110.171
116.782
123.551
130.473
137.539
144.735
152.047
159.461
166.956
174.508
182.087
189.664
197.208
204.685
212.064
219.307
226.378
233.241
239.859
246.194
252.209
257.866
263.128
267.959
272.323
276.188
279.521
282.293
284.477
286.051
286.992
287.284
286.913
285.869
284.144
281.737
278.647
274.879
270.442
265.346
259.608
253.247
246.287
238.754
230.678
222.092
213.031
203.533
193.638
183.387
172.824
161.994
150.942
139.716
128.363
116.931
105.467
94.02
82.634
71.356
60.23
49.296
38.595
28.164
18.037
8.247
-1.178
-10.212
-18.83
-27.014
-34.747
-42.015
-48.809
-55.12
-60.947
-66.287
-71.144
-75.522
-79.431
-82.881
-85.885
-88.459
-90.62
-92.389
-93.788
-94.839
-95.569
-96.003
-96.168
-96.094
-95.807
-95.338
-94.714
-93.964
-93.115
-92.194
-91.227
-90.238
-89.25
-88.286
-87.367
-86.51
-85.732
-85.05
-84.476
-84.022
-83.698
-83.51
-83.465
-83.566
-83.817
-84.218
-84.769
-85.467
-86.309
-87.29
-88.404
-89.645
-91.004
-92.471
-94.038
-95.695
-97.43
-99.234
-101.096
-103.005
-104.952
-106.926
-108.918
-110.919
-112.919
-114.91
-116.885
-118.837
-120.758
-122.645
-124.492
-126.296
-128.055
-129.766
-131.428
-133.041
-134.603
-136.115
-137.577
-138.989
-140.35
-141.663
-142.928
-144.146
-145.319
-146.446
-147.528
-148.566
-149.559
-150.505
-151.402
-152.248
-153.039
-153.773
-154.446
-155.055
-155.595
-156.064
-156.457
-156.77
-157.001
-157.144
-157.194
-157.148
-157
-156.749
-156.389
-155.92
-155.339
-154.648
-153.852
-152.957
-151.966
-150.886
-149.726
-148.496
-147.206
-145.864
-144.477
-143.05
-141.592
-140.119
-138.644
-137.18
-135.738
-134.328
-132.963
-131.66
-130.434
-129.289
-128.22
-127.225
-126.309
-125.491
-124.804
-124.272
-123.908
-123.721
-123.727
-123.934
-124.349
-124.956
-125.698
-126.531
-127.402
-128.273
-129.147
-129.997
-130.783
-131.463
-131.931
-132.108
-131.968
-131.464
-130.564
-129.318
-127.692
-125.693
-123.587
-121.586
-119.934
-118.952
-118.637
-118.921
-120.06
-122.331
-125.719
-130.216
-135.396
-140.525
-145.571
-150.538
-154.945
-158.243
-159.989
-159.853
-158.566
-157.639
-157.727
-159.587
-164.442
-173.232
-187.211
-206.262
-226.622
-243.517
-252.932
-253.459
-249.217
-243.258
-232.605
-208.542
-155.007
-58.174
83.336
262.782
464.784
668.984
861.642
1025.9
1142.402
1197.536
1176.202
1076.934
912.181
694.859
447.294
190.067
-59.269
-274.752
-438.13
-542.233
-588.75
-595.874
-584.243
-564.013
-539.383
-507.655
-463.715
-410.024
-352.692
-297.517
-250.528
-214.714
-190.128
-175.813
-169.754
-169.455
-172.69
-177.905
-183.69
-188.151
-189.618
-187.3
-181.159
-171.93
-160.659
-148.061
-134.795
-121.931
-110.603
-101.448
-94.637
-89.893
-86.656
-84.466
-82.926
-81.53
-79.738
-77.222
-73.843
-69.608
-64.656
-59.101
-53.011
-46.482
-39.621
-32.509
-25.208
-17.785
-10.288
-2.794
4.599
11.829
18.856
25.656
32.233
38.596
44.757
50.755
56.63
62.413
68.127
73.792
79.424
85.051
90.703
96.411
102.203
108.104
114.134
120.309
126.642
133.135
139.787
146.593
153.543
160.63
167.847
175.184
182.631
190.174
197.795
205.478
213.202
220.942
228.673
236.363
243.984
251.502
258.887
266.104
273.119
279.899
286.409
292.615
298.483
303.979
309.072
313.729
317.919
321.615
324.79
327.418
329.476
330.945
331.806
332.047
331.656
330.625
328.949
326.628
323.663
320.06
315.828
310.98
305.531
299.5
292.909
285.784
278.153
270.046
261.497
252.541
243.215
233.558
223.609
213.41
203.002
192.427
181.728
170.947
160.126
149.308
138.534
127.844
117.277
106.871
96.662
86.685
76.971
67.55
58.449
49.693
41.303
33.298
25.694
18.503
11.738
5.404
-0.494
-5.954
-10.976
-15.565
-19.727
-23.469
-26.804
-29.743
-32.301
-34.495
-36.343
-37.862
-39.073
-39.997
-40.656
-41.071
-41.267
-41.265
-41.091
-40.766
-40.316
-39.762
-39.126
-38.431
-37.696
-36.94
-36.182
-35.438
-34.723
-34.051
-33.434
-32.883
-32.407
-32.013
-31.709
-31.498
-31.384
-31.369
-31.453
-31.635
-31.915
-32.289
-32.755
-33.309
-33.947
-34.664
-35.455
-36.315
-37.239
-38.221
-39.254
-40.333
-41.451
-42.602
-43.78
-44.98
-46.197
-47.424
-48.659
-49.897
-51.134
-52.368
-53.597
-54.817
-56.028
-57.227
-58.414
-59.588
-60.749
-61.895
-63.027
-64.145
-65.248
-66.337
-67.41
-68.466
-69.503
-70.519
-71.512
-72.477
-73.41
-74.307
-75.161
-75.967
-76.72
-77.414
-78.042
-78.596
-79.07
-79.457
-79.75
-79.942
-80.023
-79.988
-79.828
-79.54
-79.118
-78.559
-77.859
-77.018
-76.038
-74.924
-73.678
-72.305
-70.81
-69.201
-67.49
-65.689
-63.809
-61.863
-59.866
-57.834
-55.786
-53.745
-51.725
-49.74
-47.805
-45.933
-44.143
-42.455
-40.876
-39.413
-38.074
-36.866
-35.81
-34.924
-34.21
-33.669
-33.307
-33.118
-33.106
-33.264
-33.563
-33.977
-34.475
-35.02
-35.603
-36.214
-36.835
-37.466
-38.082
-38.645
-39.145
-39.551
-39.81
-39.938
-39.942
-39.819
-39.722
-39.841
-40.435
-41.922
-44.649
-48.804
-54.535
-61.873
-70.55
-80.187
-90.111
-99.236
-106.586
-111.295
-112.712
-110.653
-105.389
-97.363
-87.462
-77.279
-68.512
-62.984
-62.418
-67.827
-79.539
-98.094
-122.536
-148.938
-173.167
-190.7
-199.428
-203.805
-207.042
-205.991
-192.012
-147.596
-55.989
85.522
270.969
485.179
704.541
913.423
1097.385
1238.675
1328.608
1354.37
1303.727
1178.068
977.246
712.72
413.811
111.06
-154.763
-348.56
-462.417
-504.075
-499.917
-482.465
-465.559
-451.099
-431.732
-396.257
-344.838
-284.572
-223.668
-170.638
-129.202
-99.481
-81.295
-73.274
-73.477
-80.045
-90.917
-104.075
-117.527
-129.318
-137.638
-141.598
-141.36
-137.534
-130.949
-122.508
-113.151
-104.006
-96.312
-90.724
-87.259
-85.66
-85.409
-85.988
-87.023
-88.032
-88.471
-88.055
-86.697
-84.415
-81.386
-77.747
-73.548
-68.884
-63.858
-58.532
-52.989
-47.295
-41.496
-35.667
-29.868
-24.129
-18.484
-12.941
-7.489
-2.119
3.201
8.51
13.83
19.177
24.566
30.007
35.521
41.135
46.872
52.756
58.809
65.045
71.483
78.133
85
92.079
99.364
106.844
114.509
122.351
130.36
138.523
146.824
155.244
163.761
172.355
180.996
189.656
198.299
206.893
215.4
223.786
232.014
240.044
247.839
255.361
262.571
269.432
275.907
281.957
287.546
292.641
297.206
301.211
304.626
307.422
309.577
311.068
311.877
311.989
311.394
310.084
308.055
305.308
301.846
297.678
292.816
287.274
281.073
274.237
266.792
258.769
250.2
241.123
231.574
221.595
211.228
200.516
189.505
178.239
166.767
155.135
143.392
131.584
119.761
107.968
96.252
84.657
73.226
62.002
51.022
40.323
29.939
19.9
10.237
0.972
-7.871
-16.274
-24.222
-31.702
-38.706
-45.229
-51.269
-56.826
-61.904
-66.512
-70.656
-74.35
-77.606
-80.441
-82.872
-84.917
-86.599
-87.939
-88.962
-89.691
-90.152
-90.373
-90.378
-90.194
-89.848
-89.363
-88.767
-88.081
-87.33
-86.534
-85.715
-84.892
-84.083
-83.302
-82.566
-81.884
-81.269
-80.728
-80.267
-79.893
-79.607
-79.413
-79.312
-79.305
-79.39
-79.566
-79.832
-80.183
-80.616
-81.127
-81.709
-82.355
-83.058
-83.812
-84.61
-85.446
-86.314
-87.208
-88.124
-89.057
-90.002
-90.955
-91.914
-92.874
-93.833
-94.79
-95.745
-96.699
-97.653
-98.611
-99.574
-100.547
-101.533
-102.535
-103.554
-104.592
-105.648
-106.723
-107.815
-108.921
-110.04
-111.172
-112.316
-113.474
-114.644
-115.824
-117.013
-118.208
-119.406
-120.597
-121.77
-122.909
-124.002
-125.035
-125.999
-126.883
-127.675
-128.363
-128.938
-129.394
-129.721
-129.909
-129.935
-129.764
-129.381
-128.789
-128.001
-127.046
-125.95
-124.728
-123.411
-122.046
-120.657
-119.262
-117.848
-116.364
-114.788
-113.121
-111.385
-109.638
-107.905
-106.17
-104.412
-102.6
-100.699
-98.7
-96.548
-94.135
-91.414
-88.391
-85.139
-81.828
-78.575
-75.437
-72.449
-69.618
-66.969
-64.576
-62.491
-60.721
-59.297
-58.24
-57.618
-57.602
-58.268
-59.606
-61.543
-63.875
-66.423
-69.102
-71.805
-74.414
-76.903
-79.207
-81.275
-83.266
-85.342
-87.679
-90.629
-94.406
-98.99
-104.453
-110.818
-117.836
-125.371
-133.024
-139.787
-144.798
-147.546
-147.585
-144.968
-140.2
-133.294
-124.614
-115.566
-107.77
-102.853
-102.186
-106.26
-115.02
-129.203
-149.691
-174.204
-197.4
-214.002
-218.478
-211.787
-202.011
-190.083
-172.442
-136.701
-59.111
70.075
249.31
466.972
693.317
907.351
1094.558
1238.384
1334.159
1369.567
1327.821
1205.069
999.114
724.799
415.802
107.302
-161.107
-361.482
-486.266
-542.703
-549.696
-524.668
-481.343
-426.685
-367.083
-316.108
-280.899
-264.906
-264.012
-261.925
-250.112
-227.573
-197.704
-170.993
-152.538
-141.339
-135.869
-133.211
-132.044
-132.605
-134.62
-137.401
-139.919
-141.636
-142.319
-141.611
-139.421
-135.902
-131.33
-126.444
-122.16
-118.776
-116.249
-114.447
-113.095
-112.007
-111.057
-109.925
-108.162
-105.543
-102.032
-97.708
-92.751
-87.272
-81.307
-74.936
-68.297
-61.517
-54.722
-48.013
-41.416
-34.95
-28.643
-22.51
-16.561
-10.798
-5.184
0.332
5.78
11.181
16.549
21.89
27.223
32.577
37.974
43.437
48.98
54.614
60.351
66.203
72.177
78.274
84.485
90.798
97.201
103.687
110.246
116.867
123.536
130.234
136.943
143.644
150.313
156.921
163.438
169.829
176.061
182.099
187.907
193.448
198.687
203.585
208.108
212.221
215.887
219.074
221.747
223.878
225.436
226.397
226.735
226.43
225.465
223.828
221.507
218.498
214.799
210.411
205.341
199.599
193.2
186.163
178.512
170.272
161.476
152.16
142.361
132.124
121.493
110.516
99.243
87.727
76.021
64.179
52.257
40.31
28.394
16.564
4.874
-6.623
-17.876
-28.835
-39.456
-49.693
-59.509
-68.864
-77.728
-86.071
-93.867
-101.097
-107.744
-113.795
-119.245
-124.088
-128.328
-131.97
-135.023
-137.501
-139.422
-140.807
-141.679
-142.067
-141.998
-141.506
-140.624
-139.388
-137.834
-136.001
-133.927
-131.65
-129.21
-126.642
-123.985
-121.273
-118.54
-115.818
-113.135
-110.52
-107.997
-105.588
-103.313
-101.188
-99.227
-97.438
-95.83
-94.406
-93.166
-92.11
-91.233
-90.528
-89.987
-89.6
-89.354
-89.235
-89.228
-89.316
-89.483
-89.709
-89.977
-90.267
-90.563
-90.846
-91.102
-91.314
-91.471
-91.56
-91.57
-91.495
-91.325
-91.057
-90.686
-90.21
-89.629
-88.946
-88.165
-87.293
-86.339
-85.312
-84.224
-83.088
-81.916
-80.723
-79.522
-78.327
-77.152
-76.012
-74.921
-73.892
-72.941
-72.079
-71.32
-70.671
-70.143
-69.738
-69.462
-69.314
-69.291
-69.388
-69.596
-69.906
-70.308
-70.792
-71.344
-71.952
-72.602
-73.28
-73.971
-74.654
-75.309
-75.91
-76.429
-76.838
-77.108
-77.209
-77.117
-76.808
-76.262
-75.462
-74.395
-73.047
-71.401
-69.439
-67.135
-64.473
-61.45
-58.074
-54.368
-50.37
-46.133
-41.714
-37.177
-32.575
-27.948
-23.316
-18.677
-14.027
-9.357
-4.682
-0.042
4.522
8.981
13.319
17.536
21.661
25.744
29.849
34.064
38.446
43.014
47.731
52.497
57.188
61.654
65.782
69.507
72.769
75.524
77.729
79.351
80.328
80.583
80.007
78.462
75.85
72.119
67.302
61.496
54.848
47.574
39.863
31.881
23.781
15.614
7.397
-0.832
-9.105
-17.512
-26.151
-35.295
-45.248
-56.01
-67.576
-79.967
-92.923
-106.211
-119.424
-131.434
-141.035
-147.613
-150.745
-150.35
-147.012
-141.121
-133.279
-125.374
-119.772
-118.222
-121.996
-131.769
-147.239
-168.172
-194.673
-223.585
-248.348
-263.593
-264.074
-248.844
-224.562
-193.517
-153.117
-97.117
-9.85
119.328
291.426
502.531
735.119
966.079
1170.187
1318.298
1390.11
1374.089
1273.029
1102.7
879.049
623.307
354.88
93.086
-132.768
-300.693
-401.268
-437.351
-431.41
-408.465
-381.233
-354.401
-323.604
-281.551
-229.815
-174.75
-122.814
-80.763
-51.605
-34.348
-26.978
-26.99
-31.59
-38.301
-45.59
-51.832
-54.976
-54.252
-49.728
-41.758
-31.521
-20.287
-8.755
2.081
10.89
17.089
20.496
21.156
19.673
16.616
12.397
7.642
3.006
-1.145
-4.588
-7.253
-9.249
-10.624
-11.408
-11.702
-11.592
-11.148
-10.423
-9.437
-8.216
-6.821
-5.338
-3.856
-2.434
-1.089
0.177
1.381
2.551
3.716
4.931
6.262
7.756
9.455
11.398
13.613
16.144
19.035
22.328
26.061
30.268
34.97
40.187
45.931
52.203
58.999
66.31
74.118
82.406
91.158
100.35
109.957
119.949
130.289
140.939
151.856
162.992
174.295
185.709
197.177
208.638
220.034
231.302
242.381
253.208
263.721
273.861
283.566
292.78
301.445
309.508
316.917
323.625
329.586
334.759
339.109
342.601
345.21
346.91
347.686
347.524
346.417
344.364
341.368
337.439
332.593
326.849
320.234
312.778
304.519
295.496
285.756
275.347
264.321
252.733
240.64
228.102
215.181
201.937
188.434
174.736
160.905
147.004
133.096
119.242
105.501
91.931
78.588
65.525
52.794
40.441
28.512
17.049
6.089
-4.335
-14.191
-23.456
-32.106
-40.126
-47.502
-54.226
-60.294
-65.706
-70.466
-74.581
-78.063
-80.927
-83.191
-84.875
-86.004
-86.602
-86.699
-86.325
-85.511
-84.292
-82.701
-80.776
-78.552
-76.068
-73.362
-70.473
-67.439
-64.3
-61.095
-57.862
-54.64
-51.464
-48.373
-45.399
-42.577
-39.939
-37.513
-35.33
-33.413
-31.788
-30.477
-29.498
-28.87
-28.607
-28.722
-29.227
-30.13
-31.438
-33.155
-35.284
-37.826
-40.779
-44.142
-47.909
-52.073
-56.625
-61.557
-66.854
-72.504
-78.489
-84.794
-91.397
-98.279
-105.417
-112.788
-120.366
-128.125
-136.039
-144.08
-152.22
-160.429
-168.68
-176.942
-185.188
-193.388
-201.514
-209.537
-217.431
-225.166
-232.716
-240.054
-247.154
-253.991
-260.538
-266.772
-272.668
-278.207
-283.365
-288.124
-292.465
-296.371
-299.826
-302.816
-305.33
-307.356
-308.887
-309.915
-310.436
-310.448
-309.952
-308.948
-307.441
-305.435
-302.938
-299.96
-296.512
-292.604
-288.251
-283.47
-278.279
-272.696
-266.743
-260.443
-253.822
-246.91
-239.738
-232.338
-224.743
-216.987
-209.106
-201.136
-193.112
-185.066
-177.028
-169.031
-161.108
-153.295
-145.626
-138.134
-130.851
-123.806
-117.025
-110.537
-104.36
-98.503
-92.975
-87.786
-82.954
-78.512
-74.49
-70.898
-67.751
-65.052
-62.791
-60.955
-59.508
-58.383
-57.521
-56.868
-56.374
-56.023
-55.784
-55.606
-55.436
-55.189
-54.784
-54.178
-53.315
-52.15
-50.704
-49.025
-47.22
-45.469
-43.9
-42.627
-41.799
-41.52
-41.913
-43.121
-45.201
-48.297
-52.692
-58.509
-65.724
-74.12
-83.046
-91.777
-99.734
-106.039
-109.641
-109.895
-106.6
-100.275
-92.435
-84.897
-79.248
-77.186
-80.732
-89.784
-101.854
-114.245
-122.489
-125.538
-126.95
-124.652
-113.048
-80.749
-10.486
102.765
253.376
429.439
612.504
792.871
966.368
1122.222
1245.967
1316.308
1310.363
1222.921
1062.367
846.127
601.675
348.224
102.733
-114.705
-292.595
-417.405
-483.217
-498.62
-472.615
-422.939
-367.239
-313.915
-271.521
-238.133
-205.857
-171.876
-132.607
-91.623
-58.186
-35.78
-25.853
-26.809
-33.151
-42.077
-52.181
-61.083
-67.23
-69.693
-67.792
-61.954
-53.237
-42.346
-30.015
-17.536
-6.252
3.032
9.972
14.753
17.94
19.989
21.311
22.464
24.023
26.341
29.571
33.699
38.569
44.062
50.101
56.582
63.392
70.45
77.692
85.06
92.511
99.968
107.334
114.546
121.56
128.35
134.915
141.262
147.399
153.357
159.173
164.869
170.464
175.973
181.407
186.787
192.142
197.495
202.873
208.297
213.783
219.347
224.995
230.728
236.543
242.431
248.381
254.383
260.43
266.509
272.61
278.717
284.812
290.876
296.889
302.825
308.656
314.352
319.881
325.213
330.313
335.149
339.687
343.891
347.73
351.169
354.176
356.72
358.77
360.299
361.279
361.686
361.5
360.701
359.273
357.203
354.482
351.103
347.063
342.362
337.003
330.994
324.345
317.07
309.185
300.711
291.67
282.088
271.997
261.426
250.413
238.993
227.207
215.096
202.702
190.071
177.247
164.275
151.201
138.072
124.932
111.825
98.797
85.887
73.138
60.587
48.273
36.228
24.487
13.08
2.032
-8.63
-18.884
-28.711
-38.093
-47.017
-55.47
-63.443
-70.93
-77.927
-84.433
-90.449
-95.978
-101.027
-105.606
-109.724
-113.395
-116.633
-119.456
-121.882
-123.93
-125.621
-126.977
-128.019
-128.77
-129.253
-129.491
-129.508
-129.327
-128.968
-128.456
-127.811
-127.054
-126.205
-125.283
-124.308
-123.295
-122.264
-121.228
-120.204
-119.206
-118.246
-117.338
-116.491
-115.716
-115.021
-114.414
-113.901
-113.487
-113.175
-112.969
-112.871
-112.88
-112.998
-113.224
-113.555
-113.989
-114.523
-115.153
-115.876
-116.687
-117.581
-118.554
-119.6
-120.714
-121.892
-123.127
-124.416
-125.752
-127.129
-128.544
-129.989
-131.459
-132.95
-134.456
-135.972
-137.494
-139.017
-140.538
-142.052
-143.556
-145.046
-146.52
-147.973
-149.404
-150.81
-152.189
-153.538
-154.858
-156.146
-157.403
-158.627
-159.818
-160.974
-162.096
-163.182
-164.231
-165.24
-166.209
-167.135
-168.018
-168.854
-169.643
-170.381
-171.067
-171.696
-172.266
-172.772
-173.21
-173.574
-173.861
-174.065
-174.182
-174.209
-174.14
-173.971
-173.699
-173.32
-172.829
-172.223
-171.497
-170.647
-169.672
-168.568
-167.337
-165.978
-164.493
-162.885
-161.162
-159.33
-157.399
-155.379
-153.283
-151.126
-148.924
-146.693
-144.446
-142.197
-139.959
-137.747
-135.577
-133.462
-131.413
-129.444
-127.571
-125.809
-124.17
-122.658
-121.264
-119.982
-118.807
-117.744
-116.812
-116.031
-115.408
-114.955
-114.693
-114.63
-114.78
-115.125
-115.602
-116.161
-116.763
-117.389
-118.073
-118.822
-119.608
-120.397
-121.11
-121.67
-122.058
-122.19
-121.928
-121.282
-120.349
-119.373
-118.851
-119.152
-120.493
-123.194
-127.429
-133.018
-139.604
-146.469
-152.574
-157.277
-160.069
-160.207
-157.39
-151.891
-144.347
-136.095
-128.66
-122.912
-119.872
-121.231
-128.141
-141.044
-159.94
-183.732
-211.112
-241.729
-272.647
-297.621
-311.62
-309.703
-292.44
-267.784
-237.559
-199.338
-143.572
-51.017
85.453
263.686
473.517
688.995
891.09
1063.833
1188.661
1259.793
1267.666
1203.518
1071.376
873.099
623.106
349.938
81.44
-147.031
-310.109
-405.519
-442.887
-446.375
-440.786
-434.76
-428.296
-415.244
-388.77
-351.207
-308.963
-268.033
-233.498
-206.956
-188.312
-176.897
-170.998
-168.755
-168.418
-168.784
-169.411
-169.582
-167.936
-163.736
-156.959
-148.02
-137.86
-127.156
-116.153
-105.463
-96.119
-88.736
-83.532
-80.431
-78.918
-78.536
-78.986
-79.767
-80.284
-80.16
-79.17
-77.244
-74.489
-70.979
-66.755
-61.919
-56.583
-50.837
-44.762
-38.413
-31.837
-25.116
-18.357
-11.666
-5.122
1.234
7.381
13.317
19.048
24.591
29.985
35.274
40.491
45.663
50.811
55.953
61.119
66.341
71.651
77.078
82.651
88.388
94.305
100.413
106.715
113.211
119.896
126.76
133.796
140.997
148.354
155.857
163.493
171.245
179.096
187.024
195.005
203.011
211.012
218.976
226.869
234.658
242.308
249.782
257.044
264.058
270.787
277.195
283.246
288.904
294.135
298.907
303.187
306.948
310.162
312.804
314.851
316.286
317.09
317.252
316.76
315.608
313.793
311.313
308.174
304.382
299.947
294.885
289.213
282.953
276.131
268.773
260.911
252.578
243.809
234.641
225.115
215.27
205.149
194.794
184.249
173.557
162.763
151.91
141.042
130.2
119.426
108.761
98.244
87.911
77.799
67.94
58.367
49.109
40.191
31.638
23.471
15.707
8.362
1.447
-5.029
-11.061
-16.646
-21.784
-26.478
-30.734
-34.56
-37.966
-40.966
-43.574
-45.807
-47.684
-49.223
-50.447
-51.377
-52.037
-52.449
-52.639
-52.629
-52.444
-52.109
-51.649
-51.087
-50.448
-49.753
-49.027
-48.29
-47.562
-46.862
-46.207
-45.612
-45.092
-44.659
-44.322
-44.091
-43.973
-43.971
-44.09
-44.332
-44.697
-45.183
-45.789
-46.509
-47.34
-48.276
-49.309
-50.433
-51.64
-52.922
-54.271
-55.677
-57.133
-58.629
-60.155
-61.703
-63.263
-64.825
-66.381
-67.921
-69.438
-70.923
-72.37
-73.773
-75.127
-76.426
-77.668
-78.851
-79.973
-81.033
-82.033
-82.973
-83.855
-84.683
-85.461
-86.192
-86.881
-87.534
-88.156
-88.751
-89.326
-89.886
-90.434
-90.976
-91.515
-92.057
-92.605
-93.162
-93.733
-94.32
-94.927
-95.556
-96.211
-96.893
-97.603
-98.342
-99.109
-99.904
-100.724
-101.566
-102.427
-103.302
-104.185
-105.071
-105.953
-106.822
-107.67
-108.488
-109.266
-109.995
-110.664
-111.262
-111.78
-112.208
-112.536
-112.757
-112.862
-112.844
-112.695
-112.409
-111.981
-111.406
-110.678
-109.791
-108.744
-107.534
-106.161
-104.626
-102.929
-101.075
-99.071
-96.928
-94.657
-92.269
-89.778
-87.199
-84.552
-81.857
-79.136
-76.407
-73.69
-71.003
-68.369
-65.815
-63.359
-61.017
-58.804
-56.731
-54.817
-53.082
-51.535
-50.172
-48.991
-47.987
-47.164
-46.546
-46.144
-45.954
-45.98
-46.218
-46.666
-47.329
-48.187
-49.193
-50.298
-51.442
-52.586
-53.728
-54.853
-55.956
-57.011
-57.943
-58.698
-59.234
-59.487
-59.435
-59.061
-58.315
-57.298
-56.234
-55.405
-55.249
-56.138
-58.261
-61.768
-66.714
-72.874
-79.962
-87.409
-94.212
-99.437
-102.211
-101.849
-98.162
-91.405
-81.934
-70.534
-58.688
-48.148
-41.04
-39.481
-44.893
-57.777
-78.526
-105.766
-135.187
-162.44
-182.541
-193.416
-199.157
-201.254
-195.479
-171.67
-111.834
-3.109
152.995
346.625
560.106
773.203
974.287
1150.513
1284.494
1363.9
1373.466
1304.106
1162.17
954.65
698.067
418.931
141.532
-101.812
-283.818
-397.476
-447.552
-455.32
-447.878
-437.635
-427.662
-413.409
-386.569
-348.009
-303.68
-259.561
-221.701
-192.267
-171.084
-157.398
-149.259
-144.59
-141.575
-138.97
-136.275
-132.78
-127.163
-118.738
-107.584
-94.261
-79.902
-65.381
-51.152
-38.037
-27.207
-19.358
-14.699
-13.055
-13.749
-16.112
-19.671
-23.792
-27.782
-31.197
-33.755
-35.332
-35.98
-35.711
-34.467
-32.219
-28.968
-24.726
-19.552
-13.541
-6.824
0.387
7.872
15.431
22.912
30.229
37.333
44.202
50.83
57.234
63.422
69.389
75.121
80.605
85.847
90.882
95.77
100.599
105.451
110.401
115.513
120.828
126.372
132.158
138.18
144.423
150.874
157.524
164.371
171.417
178.653
186.069
193.644
201.352
209.166
217.052
224.974
232.895
240.781
248.596
256.307
263.886
271.297
278.506
285.477
292.169
298.542
304.558
310.174
315.35
320.049
324.233
327.869
330.926
333.377
335.196
336.36
336.852
336.656
335.76
334.157
331.841
328.811
325.072
320.629
315.496
309.686
303.219
296.118
288.41
280.127
271.302
261.97
252.172
241.948
231.342
220.398
209.163
197.685
186.014
174.198
162.289
150.336
138.388
126.494
114.701
103.054
91.595
80.366
69.407
58.751
48.434
38.486
28.934
19.803
11.113
2.882
-4.875
-12.149
-18.932
-25.221
-31.015
-36.319
-41.137
-45.479
-49.357
-52.785
-55.78
-58.362
-60.551
-62.37
-63.843
-64.996
-65.856
-66.451
-66.807
-66.954
-66.92
-66.732
-66.418
-66.004
-65.518
-64.985
-64.427
-63.868
-63.329
-62.83
-62.387
-62.018
-61.737
-61.555
-61.483
-61.528
-61.699
-61.998
-62.429
-62.993
-63.688
-64.514
-65.466
-66.538
-67.726
-69.021
-70.417
-71.903
-73.47
-75.109
-76.808
-78.558
-80.348
-82.167
-84.004
-85.848
-87.69
-89.519
-91.326
-93.102
-94.839
-96.53
-98.167
-99.746
-101.261
-102.708
-104.084
-105.388
-106.618
-107.772
-108.853
-109.86
-110.798
-111.667
-112.472
-113.216
-113.905
-114.544
-115.137
-115.69
-116.209
-116.699
-117.166
-117.616
-118.054
-118.487
-118.918
-119.354
-119.799
-120.258
-120.736
-121.234
-121.758
-122.308
-122.886
-123.495
-124.133
-124.799
-125.492
-126.211
-126.952
-127.712
-128.487
-129.272
-130.059
-130.844
-131.619
-132.377
-133.108
-133.804
-134.456
-135.055
-135.593
-136.06
-136.447
-136.744
-136.944
-137.039
-137.021
-136.883
-136.616
-136.215
-135.673
-134.989
-134.16
-133.182
-132.057
-130.787
-129.38
-127.843
-126.185
-124.415
-122.542
-120.578
-118.539
-116.441
-114.299
-112.128
-109.943
-107.761
-105.607
-103.501
-101.46
-99.501
-97.632
-95.868
-94.229
-92.726
-91.37
-90.168
-89.123
-88.248
-87.564
-87.085
-86.817
-86.766
-86.926
-87.289
-87.853
-88.599
-89.495
-90.508
-91.605
-92.751
-93.923
-95.089
-96.212
-97.266
-98.224
-99.061
-99.75
-100.236
-100.458
-100.417
-100.187
-99.831
-99.402
-98.996
-98.755
-99.005
-100.253
-102.79
-106.607
-111.642
-117.837
-125.027
-132.991
-140.939
-147.386
-151.273
-152.16
-149.914
-144.72
-136.778
-126.27
-114.539
-104.211
-97.405
-95.773
-100.346
-111.083
-128.439
-151.758
-176.905
-198.726
-212.194
-214.688
-209.415
-198.971
-180.532
-146.695
-83.848
19.61
163.773
341.696
539.336
738.216
925.233
1085.146
1200.543
1256.839
1238.423
1140.227
968.921
738.911
475.239
204.825
-46.389
-255.146
-406.769
-498.499
-535.422
-527.049
-489.333
-433.709
-372.055
-320.799
-284.734
-264.759
-255.994
-242.94
-219.492
-187.043
-150.431
-120.549
-102.268
-94.071
-93.52
-96.995
-102.38
-109.123
-116.194
-122.157
-126.076
-127.73
-127.194
-124.579
-120.174
-114.401
-108.064
-102.416
-98.132
-95.256
-93.63
-92.861
-92.637
-92.781
-92.926
-92.544
-91.336
-89.193
-86.147
-82.395
-78.061
-73.186
-67.857
-62.172
-56.233
-50.142
-43.977
-37.791
-31.625
-25.509
-19.466
-13.517
-7.662
-1.887
3.837
9.555
15.298
21.083
26.923
32.827
38.809
44.898
51.113
57.475
64
70.699
77.585
84.671
91.961
99.451
107.134
114.994
123.02
131.203
139.532
147.993
156.57
165.245
173.996
182.802
191.637
200.47
209.269
217.999
226.622
235.104
243.406
251.49
259.318
266.851
274.052
280.883
287.308
293.289
298.793
303.786
308.236
312.115
315.395
318.051
320.063
321.412
322.082
322.061
321.341
319.917
317.787
314.953
311.42
307.198
302.299
296.741
290.542
283.726
276.322
268.359
259.871
250.893
241.464
231.624
221.414
210.879
200.062
189.008
177.763
166.371
154.878
143.33
131.768
120.237
108.778
97.431
86.234
75.224
64.434
53.897
43.642
33.696
24.084
14.827
5.945
-2.547
-10.632
-18.302
-25.548
-32.363
-38.746
-44.695
-50.214
-55.308
-59.984
-64.251
-68.121
-71.606
-74.723
-77.486
-79.912
-82.019
-83.826
-85.352
-86.615
-87.635
-88.432
-89.026
-89.434
-89.677
-89.772
-89.736
-89.587
-89.34
-89.012
-88.616
-88.166
-87.676
-87.159
-86.625
-86.086
-85.55
-85.028
-84.525
-84.05
-83.607
-83.202
-82.838
-82.517
-82.244
-82.019
-81.844
-81.721
-81.65
-81.633
-81.668
-81.757
-81.9
-82.096
-82.347
-82.651
-83.01
-83.425
-83.897
-84.426
-85.015
-85.664
-86.375
-87.149
-87.987
-88.891
-89.86
-90.896
-91.999
-93.171
-94.412
-95.722
-97.102
-98.551
-100.069
-101.656
-103.31
-105.028
-106.809
-108.649
-110.545
-112.492
-114.488
-116.525
-118.6
-120.705
-122.834
-124.978
-127.129
-129.276
-131.408
-133.514
-135.581
-137.599
-139.554
-141.434
-143.225
-144.914
-146.488
-147.934
-149.238
-150.386
-151.365
-152.162
-152.764
-153.162
-153.344
-153.302
-153.027
-152.514
-151.757
-150.753
-149.497
-147.987
-146.222
-144.206
-141.94
-139.43
-136.681
-133.704
-130.512
-127.122
-123.555
-119.829
-115.964
-111.984
-107.915
-103.787
-99.627
-95.457
-91.301
-87.182
-83.13
-79.179
-75.357
-71.686
-68.186
-64.879
-61.79
-58.948
-56.37
-54.058
-52.014
-50.237
-48.742
-47.563
-46.726
-46.24
-46.111
-46.338
-46.92
-47.861
-49.14
-50.7
-52.488
-54.431
-56.473
-58.598
-60.777
-62.989
-65.208
-67.347
-69.313
-71.027
-72.411
-73.439
-74.164
-74.601
-74.74
-74.694
-74.686
-75.136
-76.497
-78.973
-82.488
-86.839
-92.094
-98.491
-105.906
-113.64
-120.663
-126.044
-129.528
-131.506
-131.809
-129.729
-125.132
-118.793
-112.458
-108.397
-108.134
-112.112
-121.172
-136.944
-158.768
-183.073
-205.717
-221.082
-228.47
-233.377
-235.143
-228.322
-200.169
-130.635
-12.576
148.764
340.113
540.137
735.781
920.246
1082.568
1210.167
1283.526
1281.484
1196.86
1033.53
807.448
546.078
275.739
23.136
-187.996
-345.315
-446.037
-496.749
-509.21
-493.92
-457.614
-406.915
-352.495
-304.523
-270.341
-250.377
-235.108
-215.665
-189.365
-159.363
-134.079
-119.217
-114.899
-118.256
-124.964
-132.238
-138.564
-142.567
-143.674
-141.568
-136.321
-128.633
-119.109
-108.31
-97.283
-87.251
-79.002
-72.886
-68.817
-66.355
-65.052
-64.507
-64.198
-63.528
-62.129
-59.843
-56.637
-52.631
-47.937
-42.622
-36.79
-30.568
-24.035
-17.252
-10.283
-3.174
3.992
11.101
18.079
24.876
31.457
37.819
43.96
49.885
55.625
61.221
66.7
72.084
77.389
82.625
87.817
92.997
98.193
103.434
108.746
114.152
119.67
125.315
131.094
137.006
143.049
149.214
155.497
161.895
168.401
175.008
181.705
188.481
195.321
202.209
209.125
216.044
222.94
229.785
236.551
243.208
249.726
256.072
262.215
268.123
273.762
279.102
284.11
288.753
293
296.82
300.186
303.069
305.446
307.29
308.583
309.306
309.444
308.984
307.916
306.234
303.933
301.014
297.479
293.334
288.588
283.252
277.343
270.879
263.883
256.378
248.391
239.951
231.088
221.835
212.226
202.296
192.082
181.619
170.947
160.103
149.127
138.058
126.934
115.793
104.674
93.613
82.645
71.806
61.128
50.641
40.377
30.363
20.624
11.185
2.067
-6.711
-15.133
-23.185
-30.854
-38.131
-45.01
-51.487
-57.558
-63.224
-68.486
-73.347
-77.813
-81.891
-85.589
-88.918
-91.889
-94.516
-96.813
-98.796
-100.48
-101.884
-103.026
-103.925
-104.599
-105.068
-105.353
-105.474
-105.45
-105.303
-105.05
-104.713
-104.308
-103.855
-103.369
-102.866
-102.361
-101.868
-101.398
-100.963
-100.572
-100.235
-99.958
-99.748
-99.611
-99.55
-99.567
-99.666
-99.847
-100.109
-100.451
-100.871
-101.366
-101.932
-102.565
-103.258
-104.006
-104.803
-105.641
-106.512
-107.408
-108.322
-109.244
-110.167
-111.083
-111.984
-112.862
-113.712
-114.526
-115.3
-116.031
-116.714
-117.347
-117.929
-118.46
-118.941
-119.372
-119.756
-120.095
-120.394
-120.655
-120.886
-121.089
-121.271
-121.438
-121.595
-121.749
-121.908
-122.076
-122.261
-122.468
-122.703
-122.972
-123.279
-123.629
-124.025
-124.47
-124.967
-125.517
-126.12
-126.775
-127.48
-128.231
-129.022
-129.847
-130.696
-131.561
-132.428
-133.287
-134.123
-134.924
-135.676
-136.362
-136.969
-137.48
-137.882
-138.159
-138.297
-138.279
-138.093
-137.726
-137.168
-136.409
-135.442
-134.261
-132.864
-131.254
-129.433
-127.405
-125.176
-122.753
-120.146
-117.37
-114.44
-111.371
-108.181
-104.891
-101.525
-98.111
-94.676
-91.244
-87.835
-84.473
-81.175
-77.969
-74.876
-71.909
-69.079
-66.4
-63.888
-61.574
-59.478
-57.608
-55.976
-54.585
-53.434
-52.53
-51.864
-51.402
-51.121
-50.988
-50.968
-51.059
-51.246
-51.514
-51.865
-52.265
-52.679
-53.083
-53.431
-53.675
-53.818
-53.86
-53.78
-53.706
-53.839
-54.461
-56.004
-58.83
-63.155
-69.093
-76.729
-85.876
-95.999
-106.287
-115.519
-122.395
-125.855
