Name,Aleksandre Beruashvili
Date of Birth,"Dec 20, 1998"
Recorded Date,2024-05-27 21:05:17 +0400
Classification,High Heart Rate
Symptoms,
Software Version,1.90
Device,"Watch7,2"
Sample Rate,512 hertz


Lead,Lead I
Unit,µV

-87.999
-81.195
-74.238
-67.154
-59.972
-52.718
-45.42
-38.106
-30.803
-23.541
-16.344
-9.242
-2.259
4.578
11.245
17.72
23.979
30.003
35.772
41.269
46.478
51.386
55.981
60.252
64.191
67.793
71.053
73.971
76.545
78.78
80.678
82.247
83.494
84.429
85.063
85.409
85.479
85.288
84.852
84.186
83.307
82.232
80.979
79.564
78.006
76.32
74.523
72.63
70.656
68.614
66.517
64.377
62.204
60.009
57.802
55.59
53.38
51.179
48.991
46.819
44.665
42.531
40.415
38.316
36.234
34.166
32.111
30.066
28.029
25.996
23.966
21.934
19.898
17.854
15.797
13.723
11.629
9.513
7.372
5.206
3.014
0.796
-1.447
-3.713
-6.001
-8.31
-10.641
-12.996
-15.375
-17.78
-20.209
-22.663
-25.141
-27.639
-30.153
-32.673
-35.192
-37.704
-40.205
-42.693
-45.164
-47.62
-50.062
-52.489
-54.9
-57.291
-59.653
-61.973
-64.241
-66.45
-68.599
-70.701
-72.77
-74.818
-76.858
-78.895
-80.919
-82.915
-84.854
-86.694
-88.4
-89.937
-91.272
-92.394
-93.289
-93.957
-94.4
-94.593
-94.499
-94.096
-93.364
-92.325
-91.058
-89.631
-88.128
-86.659
-85.301
-84.191
-83.484
-83.259
-83.59
-84.528
-86.062
-88.358
-91.683
-96.013
-101.212
-106.971
-112.619
-117.596
-121.446
-123.279
-122.251
-118.337
-111.658
-102.861
-93.821
-86.379
-82.424
-84.473
-92.268
-101.916
-110.607
-116.91
-123.682
-137.68
-158.53
-174.373
-165.366
-113.864
-12.807
126.748
282.97
441.969
590.155
717.824
817.089
866.658
852.953
774.412
636.178
456.707
254.982
46.183
-149.368
-308.939
-416.906
-466.687
-468.433
-446.515
-417.9
-389.871
-360.127
-318.405
-262.963
-199.633
-134.991
-77.08
-29.952
6.325
31.186
45.029
49.627
47.137
39.678
29.531
18.882
9.198
2.042
-1.571
-1.828
0.581
4.93
10.206
15.243
19.363
21.928
22.555
21.455
18.941
15.378
11.33
7.433
4.084
1.589
0.173
-0.174
0.512
2.155
4.539
7.411
10.585
13.925
17.321
20.72
24.069
27.316
30.455
33.488
36.41
39.207
41.837
44.266
46.485
48.51
50.378
52.144
53.85
55.53
57.232
58.991
60.831
62.764
64.781
66.863
68.998
71.181
73.403
75.662
77.945
80.24
82.532
84.804
87.039
89.216
91.311
93.3
95.163
96.881
98.436
99.816
101.004
101.984
102.744
103.268
103.54
103.548
103.277
102.712
101.843
100.66
99.157
97.327
95.168
92.68
89.863
86.723
83.265
79.496
75.427
71.069
66.435
61.539
56.399
51.031
45.455
39.69
33.759
27.685
21.49
15.2
8.838
2.43
-3.999
-10.425
-16.822
-23.167
-29.437
-35.607
-41.655
-47.56
-53.301
-58.859
-64.218
-69.36
-74.273
-78.944
-83.363
-87.521
-91.412
-95.032
-98.377
-101.446
-104.238
-106.757
-109.006
-110.987
-112.707
-114.172
-115.387
-116.362
-117.103
-117.618
-117.917
-118.007
-117.898
-117.599
-117.121
-116.473
-115.666
-114.71
-113.615
-112.39
-111.046
-109.592
-108.038
-106.39
-104.659
-102.854
-100.988
-99.069
-97.106
-95.11
-93.09
-91.054
-89.008
-86.957
-84.902
-82.844
-80.786
-78.732
-76.687
-74.655
-72.645
-70.668
-68.734
-66.851
-65.025
-63.258
-61.545
-59.889
-58.29
-56.753
-55.294
-53.923
-52.653
-51.493
-50.452
-49.526
-48.697
-47.932
-47.191
-46.44
-45.653
-44.809
-43.896
-42.899
-41.816
-40.645
-39.373
-37.987
-36.475
-34.83
-33.065
-31.236
-29.427
-27.739
-26.304
-25.211
-24.527
-24.337
-24.73
-25.793
-27.611
-30.244
-33.69
-38.05
-43.479
-49.912
-57.114
-64.571
-71.46
-77.106
-81.001
-82.471
-80.993
-76.607
-69.752
-61.725
-54.509
-49.566
-48.171
-51.636
-60.342
-73.668
-89.915
-105.631
-116.786
-119.68
-110.144
-84.145
-38.571
26.219
105.388
193.258
283.751
376.366
475.696
577.579
672.193
741.207
758.134
712.124
603.783
441.689
248.44
42.485
-158.189
-329.049
-454.09
-524.731
-542.714
-526.252
-492.969
-452.501
-408.175
-355.465
-292.573
-224.431
-158.214
-101.599
-58.963
-31.476
-18.278
-16.562
-23.132
-34.13
-45.666
-55.607
-62.565
-65.098
-62.817
-56.14
-46.036
-34.638
-24.163
-15.616
-9.504
-6.153
-5.338
-6.792
-10.133
-14.46
-18.844
-22.785
-26.011
-28.438
-30.142
-31.086
-31.176
-30.389
-28.75
-26.314
-23.143
-19.325
-14.969
-10.197
-5.152
0.03
5.262
10.49
15.69
20.886
26.102
31.341
36.594
41.811
46.941
51.971
56.901
61.755
66.589
71.445
76.367
81.408
86.601
91.96
97.487
103.158
108.933
114.786
120.692
126.637
132.612
138.603
144.588
150.547
156.451
162.275
167.99
173.562
178.956
184.145
189.103
193.812
198.257
202.424
206.297
209.864
213.11
216.023
218.593
220.806
222.654
224.127
225.22
225.932
226.262
226.214
225.791
225.001
223.853
222.358
220.53
218.383
215.932
213.196
210.193
206.942
203.466
199.785
195.923
191.901
187.743
183.473
179.112
174.683
170.208
165.706
161.198
156.702
152.235
147.813
143.452
139.166
134.968
130.87
126.882
123.011
119.266
115.652
112.172
108.83
105.624
102.555
99.621
96.818
94.143
91.588
89.149
86.819
84.592
82.458
80.412
78.445
76.551
74.722
72.952
71.235
69.564
67.934
66.337
64.771
63.23
61.711
60.211
58.725
57.252
55.789
54.337
52.891
51.451
50.009
48.565
47.114
45.654
44.181
42.692
41.186
39.665
38.133
36.592
35.045
33.493
31.936
30.373
28.801
27.211
25.6
23.961
22.292
20.595
18.875
17.132
15.369
13.579
11.751
9.874
7.936
5.925
3.835
1.67
-0.549
-2.787
-4.998
-7.147
-9.198
-11.123
-12.899
-14.504
-15.93
-17.173
-18.216
-19.043
-19.636
-19.984
-20.099
-20.042
-19.896
-19.773
-19.811
-20.116
-20.784
-21.927
-23.659
-26.093
-29.331
-33.434
-38.396
-44.299
-51.281
-59.282
-68.073
-77.11
-85.531
-92.606
-97.783
-100.4
-99.928
-96.319
-89.849
-81.766
-74.129
-68.544
-66.443
-69.089
-76.645
-88.434
-103.002
-116.733
-125.036
-124.148
-109.549
-76.985
-24.506
48.851
139.817
239.389
339.473
434.302
522.632
607.097
683.333
739.078
755.263
712.515
606.831
445.231
243.522
26.768
-186.176
-373.871
-511.525
-589.34
-602.701
-561.661
-490.96
-405.957
-323.22
-250.63
-186.408
-136.138
-96.403
-65.3
-45.511
-32.411
-27.81
-32.576
-42.479
-56.04
-69.494
-79.16
-83.884
-82.841
-76.504
-66.389
-54.405
-42.62
-32.263
-23.873
-17.887
-14.302
-12.948
-13.562
-15.299
-17.168
-18.626
-19.387
-19.359
-18.667
-17.336
-15.292
-12.629
-9.465
-5.857
-1.924
2.294
6.82
11.593
16.54
21.58
26.61
31.573
36.471
41.307
46.093
50.847
55.55
60.205
64.81
69.351
73.847
78.307
82.728
87.123
91.507
95.896
100.314
104.778
109.273
113.787
118.301
122.796
127.26
131.676
136.025
140.294
144.466
148.524
152.454
156.242
159.868
163.316
166.563
169.59
172.382
174.924
177.201
179.2
180.91
182.319
183.418
184.201
184.661
184.79
184.587
184.048
183.173
181.963
180.423
178.557
176.372
173.877
171.082
168
164.643
161.029
157.173
153.094
148.81
144.34
139.705
134.926
130.023
125.018
119.931
114.784
109.598
104.395
99.194
94.016
88.88
83.804
78.806
73.901
69.105
64.43
59.889
55.491
51.247
47.163
43.245
39.497
35.923
32.524
29.301
26.253
23.376
20.667
18.121
15.732
13.493
11.396
9.432
7.595
5.876
4.266
2.757
1.341
0.01
-1.243
-2.427
-3.549
-4.618
-5.641
-6.626
-7.579
-8.508
-9.417
-10.312
-11.197
-12.076
-12.951
-13.823
-14.695
-15.57
-16.451
-17.342
-18.249
-19.173
-20.119
-21.089
-22.087
-23.113
-24.163
-25.234
-26.32
-27.419
-28.529
-29.653
-30.792
-31.945
-33.117
-34.306
-35.51
-36.726
-37.947
-39.157
-40.349
-41.516
-42.66
-43.805
-44.969
-46.165
-47.405
-48.688
-50.006
-51.354
-52.709
-54.026
-55.273
-56.411
-57.411
-58.273
-58.987
-59.541
-59.919
-60.063
-59.911
-59.438
-58.636
-57.532
-56.187
-54.649
-52.975
-51.264
-49.637
-48.264
-47.29
-46.801
-46.869
-47.506
-48.845
-51.214
-54.741
-59.294
-64.536
-69.825
-74.613
-78.632
-81.246
-81.539
-79.291
-74.787
-69.03
-63.898
-61.001
-61.835
-68.408
-82.401
-101.871
-122.144
-138.863
-148.1
-152.876
-159.911
-166.798
-164.501
-137.849
-68.917
44.668
191.212
356.215
521
668.755
788.591
863.364
872.195
807.292
667.1
460.651
218.978
-30.109
-256.715
-425.678
-527.354
-563.554
-548.493
-514.693
-479.246
-446.742
-415.39
-373.654
-319.708
-260.618
-203.866
-157.701
-125.541
-107.001
-101.204
-105.692
-117.488
-133.196
-149.02
-162.792
-173.28
-179.091
-179.69
-175.297
-166.656
-155.656
-144.488
-134.237
-125.486
-118.796
-114.203
-111.621
-110.864
-111.115
-111.418
-111.302
-110.526
-109.002
-106.857
-104.113
-100.741
-96.879
-92.694
-88.286
-83.727
-79.009
-74.097
-69.02
-63.845
-58.657
-53.527
-48.491
-43.556
-38.725
-33.994
-29.364
-24.826
-20.361
-15.952
-11.589
-7.268
-2.997
1.225
5.408
9.566
13.718
17.883
22.066
26.271
30.497
34.739
38.992
43.245
47.484
51.697
55.872
60.001
64.074
68.08
72.006
75.839
79.565
83.166
86.627
89.93
93.059
95.997
98.729
101.241
103.519
105.55
107.322
108.825
110.049
110.987
111.63
111.973
112.012
111.743
111.166
110.281
109.088
107.592
105.797
103.71
101.339
98.695
95.788
92.632
89.24
85.628
81.812
77.808
73.635
69.311
64.855
60.287
55.625
50.891
46.103
41.281
36.444
31.61
26.796
22.018
17.291
12.629
8.045
3.552
-0.84
-5.121
-9.283
-13.316
-17.214
-20.971
-24.583
-28.046
-31.359
-34.519
-37.527
-40.384
-43.091
-45.65
-48.064
-50.335
-52.466
-54.46
-56.322
-58.053
-59.66
-61.144
-62.511
-63.765
-64.91
-65.951
-66.89
-67.732
-68.477
-69.13
-69.694
-70.171
-70.563
-70.873
-71.104
-71.26
-71.35
-71.379
-71.351
-71.273
-71.153
-70.995
-70.808
-70.592
-70.348
-70.078
-69.786
-69.476
-69.155
-68.83
-68.507
-68.199
-67.916
-67.668
-67.463
-67.3
-67.176
-67.091
-67.05
-67.064
-67.15
-67.324
-67.594
-67.973
-68.468
-69.075
-69.772
-70.519
-71.261
-71.951
-72.556
-73.051
-73.42
-73.645
-73.705
-73.577
-73.244
-72.683
-71.875
-70.807
-69.479
-67.942
-66.3
-64.684
-63.263
-62.177
-61.513
-61.375
-61.864
-63.057
-65.066
-67.972
-71.773
-76.571
-82.51
-89.508
-97.379
-105.647
-113.453
-120.046
-124.73
-126.613
-125.113
-120.239
-112.278
-102.446
-92.655
-84.384
-79.347
-79.302
-84.625
-94.511
-107.459
-120.147
-128.138
-127.397
-112.735
-78.473
-24.002
47.077
131.839
224.807
326.548
445.387
576.826
707.517
814.932
865.12
841.924
748.925
599.336
416.352
218.999
18.741
-168.024
-318.77
-416.973
-454.653
-440.217
-399.785
-353.733
-313.385
-280.74
-247.251
-210.656
-173.991
-140.723
-116.535
-102.512
-95.791
-93.959
-93.648
-91.852
-87.644
-80.682
-71.104
-59.866
-47.869
-35.82
-24.692
-15.429
-8.403
-3.657
-0.949
0.236
0.299
-0.44
-1.625
-2.914
-4.01
-4.697
-4.872
-4.522
-3.638
-2.211
-0.225
2.327
5.395
8.906
12.782
16.947
21.344
25.905
30.557
35.218
39.797
44.233
48.495
52.564
56.435
60.111
63.589
66.88
70.017
73.027
75.934
78.761
81.517
84.217
86.885
89.542
92.207
94.893
97.605
100.348
103.124
105.933
108.773
111.635
114.507
117.38
120.247
123.1
125.931
128.731
131.487
134.189
136.826
139.385
141.85
144.206
146.438
148.529
150.465
152.231
153.814
155.199
156.372
157.322
158.038
158.508
158.723
158.674
158.353
157.755
156.875
155.71
154.258
152.52
150.496
148.19
145.607
142.752
139.633
136.26
132.643
128.793
124.726
120.454
115.994
111.361
106.574
101.649
96.607
91.465
86.243
80.96
75.636
70.291
64.943
59.612
54.316
49.074
43.902
38.818
33.835
28.97
24.234
19.642
15.204
10.93
6.831
2.915
-0.81
-4.337
-7.662
-10.78
-13.688
-16.384
-18.868
-21.137
-23.194
-25.038
-26.669
-28.089
-29.299
-30.301
-31.096
-31.687
-32.078
-32.271
-32.27
-32.082
-31.711
-31.163
-30.444
-29.559
-28.513
-27.314
-25.967
-24.479
-22.856
-21.106
-19.237
-17.259
-15.187
-13.034
-10.81
-8.53
-6.207
-3.855
-1.487
0.887
3.262
5.627
7.972
10.281
12.539
14.729
16.839
18.852
20.751
22.524
24.16
25.656
27.016
28.235
29.302
30.203
30.907
31.389
31.635
31.629
31.363
30.84
30.07
29.079
27.918
26.62
25.213
23.721
22.145
20.509
18.844
17.18
15.567
14.05
12.665
11.436
10.358
9.384
8.454
7.49
6.389
5.061
3.38
1.22
-1.519
-4.973
-9.219
-14.379
-20.707
-28.268
-36.955
-46.461
-56.106
-65.219
-73.392
-79.953
-84.045
-85.494
-84.502
-82.017
-80.135
-80.432
-83.804
-91.637
-105.094
-123.958
-147.111
-171.573
-192.268
-205.228
-207.037
-193.162
-159.587
-103.841
-26.844
65.548
165.555
268.234
374.333
485.798
598.38
698.482
762.849
770.476
713.525
598.357
442.512
262.779
72.28
-116.593
-289.117
-426.227
-514.376
-553.038
-555.238
-538.461
-514.278
-484.992
-445.455
-394.314
-336.365
-278.36
-227.986
-188.757
-160.743
-144.18
-137.82
-138.82
-143.752
-149.075
-152.505
-153.478
-151.632
-146.039
-136.471
-123.673
-109.357
-95.886
-84.666
-75.973
-69.894
-66.569
-65.928
-67.732
-71.262
-75.3
-79.087
-82.336
-84.898
-86.801
-87.991
-88.29
-87.633
-86.078
-83.643
-80.342
-76.193
-71.175
-65.385
-59.02
-52.267
-45.331
-38.353
-31.395
-24.508
-17.714
-11.025
-4.456
1.968
8.223
14.277
20.099
25.678
31.015
36.141
41.121
46.021
50.904
55.816
60.777
65.795
70.866
75.975
81.097
86.21
91.298
96.35
101.363
106.33
111.238
116.071
120.806
125.42
129.888
134.188
138.296
142.193
145.864
149.298
152.487
155.423
158.099
160.506
162.634
164.473
166.015
167.253
168.176
168.781
169.062
169.019
168.653
167.967
166.965
165.654
164.042
162.137
159.953
157.5
154.791
151.842
148.667
145.282
141.705
137.955
134.048
130.004
125.844
121.585
117.248
112.852
108.414
103.953
99.485
95.026
90.592
86.198
81.859
77.586
73.394
69.293
65.292
61.4
57.622
53.961
50.42
47
43.698
40.514
37.444
34.483
31.627
28.872
26.209
23.635
21.14
18.718
16.36
14.058
11.805
9.592
7.413
5.261
3.131
1.016
-1.088
-3.183
-5.272
-7.36
-9.449
-11.54
-13.637
-15.738
-17.844
-19.953
-22.064
-24.171
-26.269
-28.352
-30.413
-32.444
-34.439
-36.393
-38.3
-40.158
-41.966
-43.72
-45.421
-47.065
-48.649
-50.171
-51.623
-53
-54.295
-55.507
-56.632
-57.675
-58.638
-59.524
-60.338
-61.081
-61.754
-62.362
-62.902
-63.373
-63.773
-64.108
-64.396
-64.67
-64.962
-65.292
-65.672
-66.109
-66.606
-67.163
-67.763
-68.372
-68.946
-69.443
-69.837
-70.119
-70.277
-70.305
-70.17
-69.809
-69.189
-68.318
-67.233
-65.984
-64.625
-63.192
-61.75
-60.455
-59.499
-59.079
-59.371
-60.522
-62.614
-65.77
-70.237
-76.109
-83.262
-91.352
-99.704
-107.683
-114.929
-120.947
-125.037
-126.966
-126.869
-125.437
-124.373
-125.078
-128.299
-135.16
-146.569
-162.133
-180.786
-200.128
-215.874
-224.465
-222.743
-206.453
-172.05
-117.433
-43.732
43.187
136.391
229.546
322.091
418.483
515.489
603.976
665.665
674.012
617.479
499.573
332.904
140.542
-58.028
-250.779
-421.361
-550.427
-626.996
-647.337
-621.267
-573.538
-520.883
-470.686
-424.124
-373.67
-317.832
-260.672
-206.457
-161.278
-127.824
-105.894
-94.689
-92.076
-95.626
-103.63
-114.138
-124.864
-134.178
-140.495
-142.825
-141.267
-136.371
-128.771
-119.469
-109.808
-100.68
-92.835
-86.717
-82.136
-78.828
-76.526
-74.752
-72.933
-70.736
-67.94
-64.466
-60.474
-56.071
-51.331
-46.385
-41.351
-36.314
-31.341
-26.467
-21.693
-17.031
-12.493
-8.086
-3.819
0.317
4.343
8.283
12.171
16.028
19.87
23.71
27.551
31.402
35.271
39.166
43.097
47.074
51.103
55.189
59.34
63.555
67.829
72.152
76.507
80.88
85.261
89.639
94.002
98.338
102.632
106.87
111.039
115.121
119.097
122.948
126.652
130.19
133.545
136.7
139.639
142.348
144.814
147.024
148.968
150.637
152.021
153.113
153.907
154.399
154.586
154.469
154.047
153.326
152.309
151.004
149.421
147.569
145.46
143.109
140.529
137.738
134.754
131.594
128.28
124.831
121.27
117.618
113.896
110.128
106.333
102.532
98.746
94.992
91.289
87.655
84.105
80.656
77.32
74.113
71.045
68.127
65.367
62.773
60.351
58.104
56.036
54.146
52.435
50.901
49.543
48.356
47.337
46.478
45.774
45.215
44.793
44.498
44.32
44.248
44.273
44.386
44.578
44.839
45.164
45.544
45.973
46.446
46.956
47.497
48.063
48.65
49.254
49.869
50.494
51.126
51.763
52.402
53.044
53.686
54.327
54.966
55.598
56.22
56.828
57.42
57.991
58.538
59.059
59.552
60.019
60.463
60.882
61.28
61.654
62.003
62.32
62.596
62.82
62.981
63.071
63.081
63.008
62.852
62.615
62.298
61.896
61.391
60.765
60.004
59.095
58.028
56.807
55.444
53.968
52.425
50.862
49.317
47.821
46.38
44.984
43.627
42.306
41.036
39.835
38.698
37.615
36.585
35.558
34.431
33.088
31.352
29.063
26.153
22.539
18.137
13.034
7.352
1.147
-5.529
-12.75
-20.719
-29.419
-38.632
-48.362
-58.592
-68.621
-77.356
-83.882
-87.011
-87.75
-89.419
-91.812
-93.808
-92.38
-80.314
-59.038
-35.521
-18.243
-21.844
-52.292
-104.486
-166.761
-216.672
-231.521
-197.614
-112.439
15.638
171.692
337.734
498.195
633.144
718.001
738.362
689.49
584.575
451.519
308.521
162.811
9.496
-156.57
-324.039
-472.79
-578.299
-629.844
-637.105
-612.727
-571.831
-521.703
-458.811
-385.388
-305.966
-226.398
-156.288
-100.972
-62.562
-42.135
-37.954
-46.409
-63.432
-84.685
-105.995
-124.483
-137.884
-144.589
-144.248
-137.664
-126.462
-112.715
-98.607
-85.547
-74.444
-65.86
-59.767
-55.853
-53.587
-52.184
-50.793
-48.936
-46.408
-43.151
-39.31
-34.993
-30.27
-25.291
-20.213
-15.118
-10.051
-5.023
-0.02
4.927
9.771
14.489
19.054
23.465
27.743
31.902
35.964
39.955
43.887
47.767
51.6
55.379
59.102
62.77
66.388
69.967
73.517
77.048
80.568
84.081
87.581
91.063
94.512
97.913
101.254
104.525
107.718
110.824
113.836
116.743
119.536
122.205
124.739
127.121
129.339
131.375
133.218
134.854
136.274
137.468
138.428
139.146
139.619
139.842
139.813
139.531
138.995
138.205
137.166
135.88
134.354
132.594
130.609
128.408
126.002
123.403
120.625
117.681
114.585
111.351
107.996
104.534
100.983
97.359
93.678
89.958
86.216
82.471
78.739
75.035
71.377
67.777
64.251
60.809
57.462
54.221
51.093
48.087
45.207
42.458
39.844
37.367
35.027
32.824
30.755
28.816
27.004
25.314
23.738
22.272
20.909
19.642
18.464
17.368
16.348
15.396
14.504
13.665
12.871
12.115
11.388
10.686
10.002
9.331
8.668
8.011
7.356
6.702
6.047
5.389
4.728
4.064
3.397
2.727
2.057
1.389
0.725
0.07
-0.574
-1.203
-1.812
-2.398
-2.959
-3.497
-4.013
-4.51
-4.991
-5.46
-5.922
-6.379
-6.835
-7.288
-7.737
-8.179
-8.616
-9.049
-9.484
-9.927
-10.383
-10.862
-11.371
-11.912
-12.49
-13.103
-13.743
-14.409
-15.099
-15.825
-16.614
-17.492
-18.477
-19.588
-20.828
-22.19
-23.668
-25.232
-26.833
-28.435
-29.995
-31.484
-32.904
-34.24
-35.483
-36.62
-37.597
-38.361
-38.89
-39.175
-39.242
-39.155
-38.973
-38.78
-38.707
-38.881
-39.456
-40.567
-42.312
-44.798
-48.08
-52.278
-57.64
-64.255
-72.017
-80.604
-89.326
-97.454
-104.433
-109.467
-111.658
-110.747
-106.912
-101.175
-95.703
-92.439
-93.05
-99.502
-113.067
-133.387
-159.157
-187.23
-212.133
-228.637
-231.381
-213.892
-173.378
-111.855
-31.574
62.393
169.155
295.504
439.042
589.102
721.609
800.115
805.747
735.785
604.598
440.592
257.329
64.13
-126.613
-301.522
-436.081
-512.828
-534.477
-518.47
-487.047
-454.718
-423.079
-384.295
-335.316
-281.003
-227.944
-183.381
-150.657
-128.534
-115.562
-110.733
-111.181
-113.015
-113.943
-112.723
-109.038
-103.639
-96.652
-87.383
-76.592
-66.18
-57.213
-50.325
-45.585
-42.318
-40.323
-39.891
-40.731
-42.088
-43.418
-44.251
-44.413
-44.117
-43.398
-42.135
-40.326
-38.03
-35.344
-32.413
-29.312
-26.025
-22.58
-19.027
-15.436
-11.909
-8.511
-5.261
-2.172
0.767
3.566
6.236
8.8
11.288
13.731
16.153
18.574
21.003
23.456
25.945
28.491
31.121
33.849
36.684
39.631
42.686
45.845
49.102
52.444
55.854
59.317
62.819
66.344
69.882
73.415
76.928
80.402
83.818
87.157
90.397
93.515
96.491
99.301
101.926
104.346
106.543
108.497
110.194
111.617
112.754
113.592
114.122
114.333
114.22
113.778
113.003
111.895
110.454
108.685
106.591
104.18
101.462
98.446
95.146
91.576
87.751
83.69
79.409
74.93
70.272
65.457
60.507
55.445
50.293
45.076
39.814
34.531
29.25
23.99
18.773
13.617
8.541
3.563
-1.303
-6.042
-10.641
-15.089
-19.378
-23.498
-27.446
-31.217
-34.808
-38.219
-41.451
-44.508
-47.391
-50.108
-52.663
-55.064
-57.321
-59.442
-61.437
-63.317
-65.094
-66.778
-68.382
-69.916
-71.392
-72.82
-74.212
-75.576
-76.924
-78.263
-79.603
-80.952
-82.317
-83.707
-85.129
-86.587
-88.087
-89.634
-91.231
-92.881
-94.586
-96.347
-98.164
-100.037
-101.967
-103.956
-106.007
-108.121
-110.301
-112.549
-114.868
-117.26
-119.724
-122.258
-124.858
-127.519
-130.24
-133.02
-135.86
-138.761
-141.724
-144.753
-147.849
-151.01
-154.232
-157.507
-160.819
-164.164
-167.534
-170.931
-174.37
-177.867
-181.429
-185.067
-188.779
-192.554
-196.377
-200.224
-204.051
-207.831
-211.534
-215.132
-218.628
-222.006
-225.251
-228.351
-231.256
-233.91
-236.289
-238.375
-240.181
-241.758
-243.145
-244.396
-245.598
-246.83
-248.193
-249.787
-251.672
-253.947
-256.681
-259.986
-264.122
-269.173
-275.024
-281.404
-287.683
-293.172
-297.378
-299.535
-298.718
-294.821
-288.227
-279.917
-272.093
-266.661
-265.093
-269.615
-281.938
-301.679
-327.487
-356.618
-383.701
-403.807
-412.211
-401.869
-369.201
-316.27
-244.812
-158.513
-57.121
67.687
214.366
370.006
508.229
591.942
602.285
538.777
417.59
266.381
97.933
-81.045
-261.122
-430.547
-567.378
-653.428
-688.032
-685.537
-664.745
-640.133
-615.822
-585.76
-547.597
-504.953
-462.875
-428.365
-404.673
-390.376
-383.442
-381.518
-381.638
-381.231
-378.869
-373.825
-366.256
-357.075
-347.03
-336.696
-327.006
-318.955
-313.016
-309.323
-307.627
-307.366
-308.144
-309.655
-311.541
-313.455
-315.086
-316.196
-316.684
-316.544
-315.768
-314.343
-312.243
-309.452
-306.004
-301.964
-297.401
-292.385
-286.968
-281.211
-275.182
-268.958
-262.619
-256.221
-249.791
-243.339
-236.868
-230.373
-223.855
-217.306
-210.701
-204.014
-197.229
-190.331
-183.315
-176.175
-168.897
-161.468
-153.879
-146.128
-138.22
-130.164
-121.969
-113.649
-105.22
-96.703
-88.125
-79.508
-70.875
-62.245
-53.642
-45.087
-36.605
-28.221
-19.959
-11.843
-3.9
3.843
11.359
18.623
25.612
32.303
38.675
44.71
50.389
55.698
60.622
65.151
69.272
72.977
76.258
79.112
81.535
83.529
85.094
86.235
86.958
87.272
87.189
86.72
85.88
84.684
83.149
81.294
79.14
76.708
74.021
71.103
67.979
64.674
61.217
57.632
53.947
50.186
46.376
42.54
38.704
34.889
31.117
27.41
23.786
20.266
16.866
13.602
10.49
7.54
4.766
2.175
-0.222
-2.421
-4.416
-6.203
-7.778
-9.14
-10.286
-11.218
-11.937
-12.444
-12.745
-12.841
-12.74
-12.446
-11.967
-11.309
-10.479
-9.483
-8.328
-7.02
-5.568
-3.975
-2.249
-0.395
1.58
3.67
5.868
8.17
10.571
13.066
15.65
18.319
21.069
23.897
26.8
29.773
32.808
35.898
39.032
42.204
45.404
48.623
51.85
55.077
58.3
61.519
64.73
67.93
71.111
74.264
77.382
80.459
83.488
86.457
89.361
92.193
94.954
97.653
100.292
102.864
105.358
107.747
110.009
112.133
114.105
115.917
117.573
119.08
120.46
121.758
123.005
124.224
125.437
126.647
127.87
129.136
130.47
131.918
133.525
135.323
137.328
139.521
141.85
144.24
146.615
148.886
150.966
152.747
154.094
154.887
155
154.347
152.801
150.109
146.128
140.907
134.761
128.429
122.704
118.133
115.333
115.059
117.623
122.874
129.897
136.491
140.449
140.282
134.577
122.26
103.342
78.848
51.432
26.256
8.749
3.322
14.756
47.437
103.8
184.958
287.798
403.106
523.841
644.96
762.28
875.786
975.366
1042.54
1063.018
1024.08
928.741
794.601
631.864
450.007
257.74
62.29
-112.156
-238.719
-304.713
-310.963
-277.646
-229.151
-178.941
-130.854
-81.296
-28.658
24.222
72.405
109.72
133.537
144.403
144.265
137.798
130.091
123.737
120.16
119.966
123.106
130.117
141.035
154.277
167.501
179.16
188.577
195.759
201.039
204.255
205.311
204.707
203.33
202.01
201.221
201.065
201.439
202.375
203.977
206.28
209.233
212.694
216.545
220.734
225.267
230.154
235.352
240.787
246.364
251.989
257.609
263.205
268.77
274.304
279.812
285.29
290.748
296.219
301.732
307.304
312.948
318.66
324.446
330.326
336.323
342.458
348.736
355.153
361.702
368.375
375.161
382.045
389.004
396.011
403.04
410.069
417.076
424.039
430.931
437.723
444.387
450.894
457.214
463.316
469.171
474.745
480.011
484.94
489.508
493.689
497.461
500.803
503.694
506.119
508.063
509.511
510.454
510.881
510.788
510.172
509.032
507.37
505.191
502.502
499.314
495.64
491.494
486.894
481.86
476.413
470.577
464.38
457.849
451.013
443.902
436.549
428.985
421.243
413.356
405.355
397.272
389.138
380.984
372.837
364.728
356.683
348.728
340.888
333.185
325.641
318.276
311.106
304.146
297.411
290.912
284.658
278.657
272.915
267.438
262.227
257.285
252.609
248.198
244.046
240.148
236.496
233.081
229.893
226.922
224.158
221.59
219.207
216.997
214.949
213.053
211.296
209.666
208.151
206.737
205.413
204.166
202.985
201.858
200.775
199.725
198.7
197.691
196.689
195.686
194.672
193.636
192.564
191.447
190.274
189.033
187.714
186.308
184.81
183.216
181.527
179.74
177.853
175.865
173.768
171.559
169.232
166.782
164.204
161.498
158.665
155.709
152.645
149.478
146.211
142.842
139.351
135.721
131.945
128.016
123.936
119.72
115.385
110.964
106.515
102.081
97.708
93.439
89.285
85.277
81.445
77.809
74.425
71.35
68.603
66.19
64.089
62.225
60.527
58.909
57.238
55.387
53.199
50.506
47.19
43.138
38.315
32.644
25.878
17.927
8.906
-0.861
-10.72
-20.102
-28.763
-36.099
-41.173
-43.69
-43.688
-41.921
-40.245
-39.611
-40.452
-44.609
-53.945
-68.775
-87.101
-103.422
-110.865
-106.981
-97.04
-87.099
-79.821
-72.191
-46.258
17.037
127.356
288.727
484.093
682.15
852.089
960.305
985.328
925.943
790.979
598.896
374.243
136.875
-93.119
-291.443
-440.024
-529.168
-560.871
-554.261
-531.476
-505.179
-479.144
-447.51
-402.609
-345.361
-281.735
-219.094
-164.914
-122.8
-93.767
-77.787
-73.236
-78.039
-89.739
-105.924
-124.375
-142.25
-157.049
-167.406
-172.707
-173.245
-170.065
-164.023
-156.173
-148.213
-141.386
-136.295
-133.241
-131.925
-131.839
-132.7
-134.051
-135.222
-135.832
-135.69
-134.735
-133.159
-131.12
-128.669
-125.917
-122.978
-119.92
-116.819
-113.719
-110.628
-107.568
-104.56
-101.617
-98.756
-95.97
-93.242
-90.549
-87.859
-85.151
-82.414
-79.639
-76.828
-73.978
-71.08
-68.126
-65.103
-62
-58.812
-55.532
-52.152
-48.674
-45.106
-41.459
-37.753
-34.006
-30.231
-26.443
-22.656
-18.886
-15.151
-11.471
-7.862
-4.346
-0.946
2.313
5.405
8.305
10.991
13.439
15.627
17.536
19.145
20.436
21.392
21.997
22.239
22.103
21.579
20.657
19.331
17.596
15.45
12.894
9.93
6.565
2.806
-1.335
-5.844
-10.707
-15.906
-21.42
-27.228
-33.308
-39.635
-46.183
-52.926
-59.836
-66.883
-74.04
-81.277
-88.565
-95.875
-103.179
-110.449
-117.656
-124.776
-131.783
-138.654
-145.365
-151.895
-158.226
-164.34
-170.221
-175.855
-181.232
-186.341
-191.174
-195.727
-199.995
-203.977
-207.674
-211.088
-214.222
-217.083
-219.679
-222.016
-224.105
-225.955
-227.577
-228.981
-230.18
-231.186
-232.011
-232.666
-233.167
-233.527
-233.761
-233.883
-233.907
-233.847
-233.717
-233.532
-233.302
-233.041
-232.76
-232.47
-232.183
-231.908
-231.657
-231.441
-231.273
-231.165
-231.126
-231.169
-231.303
-231.534
-231.869
-232.312
-232.863
-233.524
-234.296
-235.18
-236.181
-237.307
-238.564
-239.96
-241.498
-243.178
-244.998
-246.956
-249.038
-251.235
-253.534
-255.936
-258.454
-261.109
-263.91
-266.861
-269.959
-273.18
-276.502
-279.887
-283.277
-286.614
-289.843
-292.919
-295.829
-298.575
-301.155
-303.559
-305.737
-307.637
-309.238
-310.534
-311.545
-312.326
-312.933
-313.46
-314.059
-314.869
-316.042
-317.729
-319.995
-322.896
-326.487
-330.778
-335.907
-342.076
-349.217
-357.091
-365.326
-373.218
-380.109
-385.463
-388.441
-388.275
-384.925
-378.917
-371.282
-363.808
-358.585
-357.22
-361.046
-371.122
-384.927
-398.788
-411.488
-418.76
-419.715
-414.384
-392.518
-349.74
-283.536
-190.246
-81.461
37.041
163.397
284.914
391.266
461.688
472.76
420.23
311.747
168.234
9.056
-159.838
-334.624
-510.393
-669.077
-785.143
-844.457
-847.044
-810.054
-755.297
-695.699
-635.098
-569.963
-498.769
-425.081
-354.966
-296.49
-254.434
-228.963
-218.746
-220.638
-230.661
-246.072
-263.982
-280.702
-293.469
-300.784
-301.894
-297.268
-288.246
-275.815
-261.283
-246.64
-233.248
-221.84
-212.804
-205.847
-200.462
-196.351
-193.011
-189.716
-186.055
-181.82
-176.942
-171.614
-165.983
-160.106
-154.099
-148.083
-142.13
-136.298
-130.616
-125.07
-119.66
-114.397
-109.285
-104.33
-99.518
-94.827
-90.232
-85.7
-81.214
-76.758
-72.321
-67.9
-63.492
-59.086
-54.672
-50.237
-45.766
-41.251
-36.686
-32.06
-27.372
-22.627
-17.834
-13.008
-8.163
-3.309
1.545
6.388
11.209
15.995
20.731
25.403
29.995
34.488
38.862
43.095
47.169
51.065
54.767
58.259
61.528
64.559
67.341
69.863
72.117
74.096
75.792
77.2
78.317
79.141
79.674
79.916
79.874
79.552
78.957
78.101
76.993
75.648
74.077
72.298
70.325
68.175
65.867
63.42
60.851
58.18
55.428
52.612
49.753
46.87
43.98
41.1
38.246
35.433
32.676
29.987
27.375
24.852
22.425
20.102
17.89
15.792
13.811
11.951
10.211
8.592
7.092
5.708
4.436
3.27
2.204
1.232
0.346
-0.462
-1.201
-1.877
-2.5
-3.075
-3.611
-4.115
-4.593
-5.051
-5.495
-5.928
-6.352
-6.773
-7.19
-7.605
-8.017
-8.424
-8.825
-9.219
-9.604
-9.977
-10.336
-10.677
-10.999
-11.302
-11.586
-11.847
-12.084
-12.294
-12.476
-12.63
-12.752
-12.834
-12.872
-12.861
-12.801
-12.692
-12.534
-12.326
-12.073
-11.781
-11.459
-11.114
-10.749
-10.358
-9.942
-9.506
-9.064
-8.638
-8.24
-7.872
-7.545
-7.268
-7.045
-6.871
-6.71
-6.507
-6.222
-5.826
-5.309
-4.677
-3.916
-3.009
-1.941
-0.69
0.732
2.307
4.044
5.943
7.965
10.037
11.996
13.652
14.861
15.52
15.572
14.971
13.622
11.45
8.372
4.326
-0.658
-6.633
-13.747
-21.938
-30.951
-40.256
-48.912
-56.06
-61.045
-63.079
-61.603
-56.644
-48.604
-38.822
-29.339
-21.81
-17.946
-19.407
-26.613
-38.886
-54.45
-69.598
-80.104
-82.025
-70.181
-39.643
12.339
84.808
172.582
268.93
368.461
471.844
580.466
687.439
780.056
836.808
835.57
770.677
645.916
472.403
271.145
59.855
-140.307
-300.404
-403.28
-443.495
-430.67
-391.906
-347.738
-308.169
-274.352
-238.329
-198.063
-156.75
-119.071
-91.903
-77.44
-74.404
-80.356
-90.223
-99.961
-107.991
-113.158
-115.18
-114.237
-109.79
-102.36
-94.001
-86.373
-80.443
-76.671
-74.718
-74.302
-75.705
-78.716
-82.593
-86.72
-90.498
-93.602
-96.139
-98.139
-99.481
-100.145
-100.142
-99.501
-98.348
-96.757
-94.729
-92.287
-89.45
-86.265
-82.821
-79.198
-75.475
-71.709
-67.923
-64.134
-60.352
-56.582
-52.835
-49.112
-45.391
-41.658
-37.906
-34.132
-30.347
-26.549
-22.726
-18.865
-14.958
-11.002
-7.009
-2.987
1.057
5.111
9.162
13.191
17.176
21.097
24.94
28.689
32.33
35.847
39.221
42.434
45.472
48.319
50.957
53.372
55.547
57.468
59.124
60.505
61.603
62.41
62.922
63.136
63.051
62.667
61.987
61.016
59.758
58.222
56.418
54.356
52.049
49.511
46.758
43.804
40.669
37.37
33.926
30.358
26.687
22.933
19.119
15.265
11.394
7.526
3.683
-0.116
-3.852
-7.507
-11.064
-14.508
-17.824
-21.001
-24.028
-26.898
-29.603
-32.141
-34.51
-36.71
-38.745
-40.62
-42.341
-43.916
-45.355
-46.668
-47.867
-48.966
-49.976
-50.913
-51.793
-52.63
-53.444
-54.25
-55.065
-55.905
-56.785
-57.721
-58.728
-59.817
-61
-62.287
-63.688
-65.213
-66.87
-68.666
-70.606
-72.694
-74.931
-77.318
-79.855
-82.535
-85.352
-88.298
-91.366
-94.544
-97.822
-101.189
-104.635
-108.152
-111.729
-115.357
-119.027
-122.725
-126.439
-130.155
-133.86
-137.536
-141.166
-144.734
-148.227
-151.639
-154.967
-158.203
-161.344
-164.38
-167.302
-170.105
-172.782
-175.312
-177.68
-179.875
-181.898
-183.779
-185.545
-187.212
-188.791
-190.285
-191.687
-193.001
-194.215
-195.28
-196.161
-196.816
-197.217
-197.388
-197.355
-197.126
-196.698
-196.025
-195.064
-193.813
-192.315
-190.616
-188.778
-186.862
-184.924
-183.084
-181.514
-180.413
-179.847
-179.81
-180.292
-181.228
-182.775
-185.269
-188.72
-192.877
-197.645
-202.736
-207.418
-211.285
-213.679
-213.114
-211.092
-209.517
-206.905
-204.253
-198.777
-187.151
-177.576
-175.429
-185.221
-211.324
-241.901
-266.842
-283.998
-289.668
-288.001
-280.311
-253.298
-193.888
-92.809
55.719
238.976
430.948
603.593
721.812
757.491
703.671
564.591
359.537
122.834
-118.793
-338.119
-506.891
-618.021
-670.108
-673.409
-656.124
-631.869
-606.244
-580.002
-541.351
-488.741
-429.095
-367.836
-312.767
-268.032
-233.072
-207.722
-191.89
-183.976
-182.094
-184.88
-190.976
-198.988
-207.446
-214.774
-219.289
-220.332
-218.171
-213.03
-205.286
-195.662
-185.167
-174.728
-165.213
-157.042
-150.066
-144.113
-138.966
-134.225
-129.403
-124.153
-118.231
-111.557
-104.273
-96.496
-88.321
-79.883
-71.302
-62.663
-54.026
-45.414
-36.825
-28.266
-19.753
-11.296
-2.907
5.414
13.674
21.882
30.058
38.219
46.374
54.533
62.693
70.855
79.017
87.182
95.353
103.528
111.708
119.89
128.076
136.261
144.436
152.588
160.696
168.744
176.719
184.604
192.385
200.047
207.571
214.94
222.14
229.151
235.953
242.527
248.852
254.909
260.68
266.15
271.302
276.124
280.603
284.727
288.488
291.877
294.888
297.515
299.755
301.606
303.068
304.143
304.833
305.144
305.083
304.657
303.876
302.754
301.304
299.54
297.48
295.143
292.546
289.711
286.658
283.408
279.984
276.407
272.701
268.888
264.991
261.032
257.033
253.017
249.003
245.013
241.065
237.175
233.362
229.638
226.019
222.517
219.142
215.907
212.82
209.891
207.127
204.536
202.122
199.891
197.845
195.986
194.315
192.834
191.541
190.436
189.519
188.79
188.246
187.888
187.713
187.72
187.907
188.271
188.808
189.514
190.385
191.416
192.604
193.944
195.434
197.069
198.847
200.763
202.814
204.996
207.303
209.728
212.263
214.895
217.615
220.412
223.273
226.188
229.146
232.138
235.157
238.197
241.251
244.308
247.356
250.381
253.371
256.314
259.195
262.007
264.741
267.393
269.962
272.45
274.853
277.164
279.365
281.42
283.304
284.997
286.49
287.777
288.864
289.754
290.473
291.063
291.557
291.991
292.389
292.758
293.123
293.509
293.956
294.533
295.31
296.307
297.52
298.936
300.511
302.221
304.038
305.843
307.485
308.813
309.674
309.93
309.502
308.235
305.838
302.202
297.388
291.712
285.882
280.549
276.098
273.102
272.327
273.924
277.605
282.366
286.01
286.748
283.558
274.99
259.796
238.344
212.069
184.098
159.816
143.747
139.754
152.947
187.817
247.048
329.207
427.734
534.956
643.283
751.825
864.754
976.393
1078.371
1153.469
1171.858
1122.232
1001.703
814.285
590.49
355.874
136.17
-33.804
-142.975
-190.52
-186.497
-160.435
-130.159
-102.259
-76.131
-41.043
5.295
57.017
107.548
149.054
178.795
197.885
206.582
206.576
200.488
191.05
181.475
173.705
168.138
165.193
165.718
169.917
177.251
186.378
195.319
202.986
209.213
213.871
216.799
217.975
217.505
215.964
214.327
213.152
212.614
212.769
213.539
214.916
216.969
219.627
222.708
226.088
229.69
233.494
237.531
241.772
246.139
250.538
254.89
259.152
263.315
267.374
271.332
275.195
278.971
282.685
286.359
290.008
293.641
297.256
300.853
304.439
308.027
311.636
315.281
318.966
322.69
326.45
330.234
334.032
337.827
341.596
345.321
348.982
352.561
356.043
359.41
362.641
365.717
368.617
371.32
373.803
376.042
378.016
379.702
381.081
382.133
382.84
383.184
383.152
382.728
381.901
380.66
378.996
376.902
374.373
371.405
367.999
364.155
359.877
355.17
350.043
344.506
338.57
332.252
325.566
318.531
311.166
303.493
295.534
287.312
278.851
270.175
261.309
252.28
243.113
233.834
224.471
215.05
205.597
196.139
186.702
177.309
167.985
158.752
149.633
140.648
131.816
123.154
114.681
106.412
98.362
90.543
82.968
75.647
68.59
61.805
55.296
49.07
43.129
37.475
32.11
27.036
22.252
17.757
13.553
9.636
6.006
2.659
-0.409
-3.205
-5.735
-8.01
-10.036
-11.824
-13.385
-14.73
-15.87
-16.816
-17.58
-18.173
-18.612
-18.909
-19.08
-19.142
-19.112
-19.011
-18.861
-18.682
-18.492
-18.311
-18.157
-18.048
-18
-18.027
-18.139
-18.348
-18.676
-19.142
-19.763
-20.556
-21.529
-22.691
-24.053
-25.618
-27.386
-29.354
-31.509
-33.851
-36.397
-39.168
-42.197
-45.502
-49.077
-52.92
-57.036
-61.412
-66.027
-70.84
-75.771
-80.778
-85.845
-90.956
-96.122
-101.321
-106.489
-111.57
-116.505
-121.242
-125.778
-130.085
-134.108
-137.843
-141.293
-144.546
-147.793
-151.158
-154.741
-158.635
-162.834
-167.458
-172.739
-178.654
-185.056
-191.591
-197.543
-202.401
-205.877
-207.383
-206.534
-203.49
-198.582
-193.172
-189.435
-188.955
-193.354
-204.246
-221.826
-245.12
-272.437
-300.019
-322.95
-336.888
-336.402
-315.798
-274.062
-214.043
-138.848
-54.668
37.52
144.077
261.188
378.529
477.426
527.4
512.033
430.734
291.607
114.176
-83.368
-287.661
-479.44
-634.738
-737.141
-779.572
-771.286
-737.941
-697.652
-657.742
-616.921
-565.026
-499.336
-424.771
-347.825
-276.897
-217.125
-170.842
-139.149
-121.074
-115.009
-118.938
-130.513
-147.738
-167.856
-187.129
-203.02
-214.262
-220.387
-221.979
-219.741
-214.178
-206.551
-198.842
-192.33
-187.629
-184.968
-183.939
-184.151
-185.379
-187.018
-188.207
-188.427
-187.424
-185.138
-181.827
-177.69
-172.852
-167.577
-162.119
-156.639
-151.266
-146.023
-140.85
-135.741
-130.705
-125.748
-120.919
-116.246
-111.729
-107.389
-103.226
-99.216
-95.326
-91.492
-87.65
-83.761
-79.798
-75.748
-71.618
-67.408
-63.131
-58.808
-54.45
-50.069
-45.681
-41.293
-36.918
-32.578
-28.292
-24.09
-20.002
-16.055
-12.275
-8.685
-5.309
-2.164
0.73
3.362
5.72
7.79
9.56
11.015
12.143
12.934
13.376
13.462
13.185
12.54
11.526
10.145
8.401
6.3
3.85
1.06
-2.058
-5.49
-9.221
-13.235
-17.513
-22.035
-26.78
-31.725
-36.847
-42.12
-47.519
-53.019
-58.594
-64.219
-69.868
-75.517
-81.142
-86.722
-92.232
-97.651
-102.958
-108.134
-113.159
-118.018
-122.694
-127.175
-131.451
-135.513
-139.355
-142.973
-146.364
-149.529
-152.467
-155.179
-157.671
-159.946
-162.011
-163.876
-165.547
-167.036
-168.355
-169.515
-170.526
-171.403
-172.155
-172.796
-173.335
-173.784
-174.155
-174.458
-174.706
-174.908
-175.075
-175.216
-175.341
-175.458
-175.576
-175.699
-175.831
-175.977
-176.14
-176.321
-176.525
-176.752
-177.004
-177.283
-177.592
-177.937
-178.325
-178.762
-179.249
-179.787
-180.375
-181.01
-181.694
-182.426
-183.2
-184.01
-184.851
-185.725
-186.642
-187.609
-188.624
-189.676
-190.744
-191.813
-192.88
-193.946
-195.018
-196.11
-197.238
-198.416
-199.676
-201.056
-202.572
-204.235
-206.014
-207.854
-209.736
-211.662
-213.669
-215.811
-218.08
-220.416
-222.75
-225.005
-227.153
-229.251
-231.257
-233.019
-234.522
-235.926
-237.683
-240.383
-244.282
-249.182
-254.806
-261.135
-268.183
-275.764
-282.993
-288.549
-291.663
-292.403
-291.508
-289.55
-286.732
-283.208
-280.044
-279.312
-282.908
-292.032
-306.671
-326.247
-350.586
-379.971
-413.758
-449.464
-483.513
-511.868
-531.424
-540.077
-534.953
-512.074
-468.034
-403.238
-322.346
-231.11
-133.213
-26.048
94.756
226.062
354.093
453.397
498.012
474.717
387.589
257.009
107.891
-42.376
-189.019
-334.116
-481.55
-628.936
-759.17
-857.25
-910.398
-910.868
-872.96
-808.589
-726.278
-636.999
-535.911
-427.313
-327.409
-248.812
-210.024
-213.711
-244.116
-286.488
-323.328
-347.43
-364.015
-375.208
-383.251
-388.232
-386.033
-376.54
-362.041
-344.62
-327.567
-312.872
-300.767
-291.556
-285.14
-280.843
-278.084
-276.134
-274.08
-271.48
-268.246
-264.34
-259.914
-255.117
-249.99
-244.662
-239.275
-233.873
-228.496
-223.154
-217.829
-212.559
-207.382
-202.315
-197.384
-192.582
-187.886
-183.284
-178.749
-174.256
-169.797
-165.366
-160.959
-156.584
-152.235
-147.901
-143.572
-139.226
-134.842
-130.405
-125.895
-121.302
-116.623
-111.859
-107.014
-102.099
-97.119
-92.078
-86.983
-81.836
-76.644
-71.415
-66.16
-60.888
-55.615
-50.357
-45.133
-39.963
-34.865
-29.856
-24.955
-20.177
-15.539
-11.057
-6.744
-2.616
1.314
5.033
8.527
11.783
14.792
17.541
20.024
22.231
24.157
25.798
27.15
28.212
28.984
29.467
29.665
29.582
29.223
28.596
27.709
26.573
25.198
23.599
21.788
19.78
17.591
15.235
12.727
10.085
7.322
4.454
1.497
-1.535
-4.627
-7.764
-10.932
-14.118
-17.309
-20.494
-23.661
-26.8
-29.901
-32.956
-35.957
-38.896
-41.765
-44.559
-47.271
-49.898
-52.435
-54.878
-57.226
-59.477
-61.628
-63.68
-65.63
-67.477
-69.221
-70.86
-72.392
-73.817
-75.133
-76.341
-77.438
-78.425
-79.302
-80.068
-80.723
-81.267
-81.7
-82.02
-82.228
-82.324
-82.307
-82.178
-81.94
-81.596
-81.151
-80.609
-79.974
-79.257
-78.468
-77.613
-76.699
-75.729
-74.705
-73.632
-72.518
-71.367
-70.186
-68.977
-67.75
-66.521
-65.305
-64.116
-62.96
-61.826
-60.7
-59.583
-58.477
-57.392
-56.349
-55.357
-54.427
-53.579
-52.827
-52.183
-51.647
-51.186
-50.749
-50.29
-49.787
-49.261
-48.75
-48.285
-47.859
-47.407
-46.868
-46.217
-45.437
-44.575
-43.619
-42.422
-41.082
-39.932
-39.286
-39.558
-40.862
-42.761
-45.137
-48.308
-52.018
-55.813
-59.304
-61.457
-62.092
-62.16
-61.647
-60.101
-57.888
-55.075
-51.84
-49.787
-49.292
-49.712
-52.106
-57.247
-65.075
-76.404
-91.398
-108.251
-125.802
-142.611
-154.894
-159.744
-154.702
-136.068
-101.024
-48.492
21.974
108.752
207.065
312.057
418.192
517.864
602.903
665.099
696.906
694.724
659.977
594.963
501.571
378.281
222.264
38.585
-156.779
-335.906
-470.03
-543.463
-558.291
-533.185
-488.562
-437.416
-383.467
-322.897
-255.169
-184.531
-117.525
-62.528
-24.366
-3.403
1.828
-4.738
-18.351
-35.265
-51.911
-65.473
-73.996
-76.276
-72.201
-62.857
-50.192
-36.335
-23.283
-12.312
-4.127
0.992
3.233
3.038
1.131
-1.61
-4.328
-6.49
-7.862
-8.379
-8.089
-7.001
-5.077
-2.297
1.277
5.568
10.502
15.953
21.842
28.087
34.553
41.125
47.721
54.281
60.807
67.337
73.877
80.419
86.937
93.365
99.671
105.855
111.922
117.913
123.862
129.793
135.744
141.758
147.859
154.056
160.338
166.663
173.003
179.34
185.656
191.946
198.201
204.4
210.529
216.568
222.496
228.293
233.935
239.39
244.632
249.64
254.394
258.883
263.095
267.015
270.63
273.928
276.899
279.533
281.821
283.751
285.317
286.515
287.342
287.799
287.889
287.616
286.986
286.006
284.688
283.042
281.081
278.818
276.269
273.451
270.38
267.075
263.555
259.84
255.95
251.907
247.733
243.451
239.081
234.646
230.168
225.669
221.168
216.687
212.242
207.854
203.54
199.315
195.196
191.195
187.324
183.593
180.011
176.584
173.316
170.21
167.269
164.491
161.876
159.422
157.126
154.985
152.993
151.145
149.434
147.856
146.401
145.064
143.834
142.705
141.669
140.717
139.841
139.034
138.287
137.593
136.946
136.338
135.762
135.212
134.681
134.162
133.652
133.146
132.64
132.131
131.617
131.096
130.568
130.033
129.491
128.942
128.384
127.813
127.227
126.622
125.996
125.342
124.659
123.943
123.195
122.416
121.609
120.775
119.912
119.02
118.096
117.135
116.133
115.086
113.993
112.856
111.677
110.466
109.229
107.973
106.697
105.388
104.028
102.607
101.112
99.54
97.904
96.215
94.499
92.798
91.145
89.579
88.139
86.84
85.696
84.719
83.916
83.326
83
82.958
83.213
83.75
84.489
85.366
86.301
87.174
87.901
88.366
88.395
87.891
86.772
84.944
82.418
79.055
74.54
68.883
62.312
55.207
48.326
42.33
37.592
34.882
35.089
38.288
44.112
51.553
58.769
63.926
65.248
61.055
50.023
34.044
17.889
3.985
-5.228
-9.821
-14.38
-12.18
8.758
55.785
140.881
259.96
395.859
542.121
685.112
811.657
915.824
976.396
973.124
901.484
760.919
564.128
339.433
108.46
-104.679
-271.103
-381.066
-432.396
-433.846
-411.328
-379.705
-344.519
-306.323
-257.125
-196.719
-132.168
-70.637
-19.779
17.033
39.765
49.094
47.528
38.22
24.784
11.103
-0.666
-9.297
-13.399
-12.453
-6.741
2.93
14.635
26.205
36.63
45.396
52.013
56.501
58.954
59.563
59.154
58.676
58.6
59.168
60.451
62.312
64.741
67.776
71.287
75.111
79.132
83.268
87.517
91.914
96.433
101.012
105.576
110.06
114.444
118.732
122.937
127.077
131.16
135.201
139.227
143.265
147.335
151.449
155.609
159.818
164.093
168.453
172.921
177.513
182.235
187.087
192.066
197.165
202.371
207.671
213.042
218.467
223.927
229.404
234.88
240.336
245.746
251.087
256.332
261.454
266.424
271.211
275.786
280.118
284.182
287.95
291.396
294.496
297.229
299.574
301.512
303.029
304.11
304.743
304.918
304.629
303.873
302.647
300.954
298.798
296.184
293.123
289.628
285.714
281.399
276.701
271.643
266.248
260.542
254.553
248.307
241.834
235.164
228.33
221.363
214.296
207.159
199.985
192.803
185.643
178.532
171.497
164.561
157.746
151.073
144.56
138.223
132.076
126.133
120.402
114.893
109.611
104.56
99.741
95.153
90.794
86.66
82.743
79.037
75.532
72.221
69.091
66.134
63.338
60.69
58.18
55.793
53.518
51.342
49.252
47.238
45.29
43.399
41.556
39.757
37.997
36.271
34.579
32.918
31.288
29.689
28.12
26.584
25.083
23.619
22.196
20.818
19.492
18.222
17.013
15.874
14.808
13.819
12.909
12.076
11.32
10.64
10.033
9.496
9.027
8.624
8.287
8.02
7.821
7.689
7.619
7.601
7.626
7.683
7.761
7.849
7.938
8.021
8.095
8.166
8.232
8.287
8.318
8.293
8.183
7.97
7.635
7.171
6.586
5.883
5.086
4.239
3.374
2.528
1.729
0.977
0.287
-0.325
-0.838
-1.189
-1.314
-1.181
-0.778
-0.134
0.69
1.645
2.67
3.671
4.541
5.126
5.298
4.984
4.117
2.687
0.567
-2.581
-6.877
-12.184
-18.145
-24.074
-29.399
-33.822
-36.678
-37.031
-34.636
-29.814
-23.635
-18.035
-14.573
-14.596
-20.023
-32.503
-50.331
-68.971
-83.682
-90.428
-92.055
-95.453
-100.06
-97.9
-73.369
-7.981
103.496
252.382
422.737
593.028
743.875
859.887
925.449
929.712
870.68
753.768
591.406
398.35
188.897
-19.185
-204.431
-347.075
-435.589
-473.033
-476.244
-462.163
-440.173
-411.423
-369.769
-313.812
-249.433
-184.535
-128.24
-86.008
-59.018
-47.035
-48.53
-60.421
-78.998
-100.599
-121.611
-139.597
-152.981
-160.665
-162.402
-158.952
-151.767
-142.603
-133.391
-125.318
-119.031
-114.944
-112.995
-112.894
-114.177
-116.144
-117.979
-119.2
-119.599
-119.09
-117.781
-115.739
-112.987
-109.635
-105.832
-101.674
-97.214
-92.481
-87.469
-82.217
-76.811
-71.317
-65.789
-60.258
-54.728
-49.199
-43.676
-38.155
-32.629
-27.097
-21.556
-16.009
-10.468
-4.942
0.568
6.067
11.564
17.071
22.59
28.12
33.655
39.185
44.695
50.169
55.586
60.929
66.18
71.326
76.354
81.249
85.997
90.582
94.989
99.202
103.202
106.972
110.496
113.758
116.744
119.444
121.846
123.942
125.725
127.188
128.328
129.142
129.628
129.785
129.615
129.12
128.304
127.173
125.735
123.999
121.976
119.678
117.12
114.316
111.283
108.038
104.6
100.987
97.22
93.319
89.304
85.196
81.016
76.783
72.518
68.241
63.969
59.72
55.509
51.352
47.261
43.249
39.326
35.5
31.78
28.171
24.679
21.308
18.059
14.933
11.93
9.05
6.289
3.643
1.109
-1.319
-3.649
-5.887
-8.042
-10.122
-12.137
-14.097
-16.01
-17.885
-19.733
-21.559
-23.373
-25.181
-26.989
-28.803
-30.627
-32.465
-34.319
-36.192
-38.084
-39.993
-41.917
-43.855
-45.803
-47.754
-49.705
-51.649
-53.581
-55.495
-57.384
-59.244
-61.067
-62.847
-64.578
-66.253
-67.865
-69.409
-70.876
-72.262
-73.56
-74.767
-75.884
-76.91
-77.847
-78.698
-79.467
-80.159
-80.778
-81.329
-81.812
-82.229
-82.582
-82.877
-83.119
-83.319
-83.488
-83.636
-83.777
-83.921
-84.078
-84.255
-84.456
-84.678
-84.926
-85.205
-85.529
-85.926
-86.423
-87.036
-87.779
-88.657
-89.661
-90.785
-92.004
-93.271
-94.554
-95.815
-97.024
-98.179
-99.263
-100.257
-101.147
-101.88
-102.406
-102.715
-102.809
-102.719
-102.514
-102.251
-102.006
-101.901
-102.061
-102.64
-103.786
-105.596
-108.188
-111.63
-116.019
-121.602
-128.436
-136.337
-144.97
-153.673
-161.766
-168.877
-174.395
-177.425
-177.775
-175.709
-171.961
-168.424
-166.648
-167.461
-172.337
-182.619
-197.981
-217.238
-238.059
-256.061
-267.231
-268.13
-253.924
-219.765
-164.886
-92.491
-6.748
85.868
183.204
291.245
409.881
529.993
636.531
701.986
700.69
626.108
479.958
275.025
40.924
-197.809
-414.455
-577.172
-675.523
-710.06
-692.842
-651.69
-602.547
-552.284
-502.337
-445.888
-384.476
-324.684
-272.516
-236.138
-218.296
-216.314
-227.095
-245.304
-264.95
-283.007
-297.285
-305.571
-307.306
-302.787
-292.716
-279.381
-265.743
-253.361
-243.155
-235.855
-231.386
-229.636
-230.43
-232.892
-235.897
-238.749
-241.047
-242.612
-243.554
-243.882
-243.53
-242.566
-241.099
-239.227
-237.019
-234.478
-231.56
-228.256
-224.614
-220.699
-216.598
-212.389
-208.109
-203.772
-199.384
-194.95
-190.468
-185.943
-181.368
-176.719
-171.981
-167.154
-162.237
-157.232
-152.135
-146.927
-141.589
-136.11
-130.489
-124.732
-118.849
-112.85
-106.75
-100.567
-94.324
-88.05
-81.77
-75.504
-69.276
-63.11
-57.032
-51.071
-45.255
-39.612
-34.17
-28.957
-24.003
-19.335
-14.981
-10.964
-7.307
-4.032
-1.157
1.299
3.321
4.897
6.015
6.667
6.845
6.546
5.767
4.51
2.778
0.577
-2.084
-5.194
-8.738
-12.7
-17.06
-21.796
-26.885
-32.301
-38.015
-43.998
-50.218
-56.644
-63.242
-69.979
-76.818
-83.727
-90.669
-97.612
-104.523
-111.369
-118.119
-124.745
-131.219
-137.514
-143.609
-149.479
-155.105
-160.469
-165.554
-170.347
-174.835
-179.009
-182.861
-186.385
-189.58
-192.446
-194.984
-197.198
-199.095
-200.684
-201.976
-202.983
-203.72
-204.199
-204.439
-204.456
-204.269
-203.898
-203.361
-202.678
-201.868
-200.951
-199.946
-198.869
-197.739
-196.569
-195.374
-194.169
-192.965
-191.775
-190.608
-189.473
-188.38
-187.336
-186.349
-185.424
-184.565
-183.776
-183.058
-182.414
-181.846
-181.352
-180.93
-180.58
-180.3
-180.091
-179.952
-179.879
-179.871
-179.924
-180.036
-180.203
-180.421
-180.679
-180.972
-181.295
-181.644
-182.019
-182.416
-182.834
-183.275
-183.747
-184.252
-184.794
-185.369
-185.963
-186.574
-187.201
-187.845
-188.519
-189.22
-189.945
-190.697
-191.48
-192.288
-193.109
-193.899
-194.602
-195.179
-195.606
-195.863
-195.953
-195.852
-195.539
-195.011
-194.258
-193.288
-192.117
-190.727
-189.108
-187.297
-185.369
-183.457
-181.723
-180.278
-179.195
-178.527
-178.335
-178.73
-179.787
-181.56
-184.09
-187.327
-191.343
-196.328
-202.204
-208.682
-215.286
-221.141
-225.45
-227.732
-227.295
-223.561
-216.699
-207.215
-196.189
-185.556
-177.32
-173.106
-174.282
-181.633
-192.469
-203.375
-213.095
-217.584
-217.029
-211.912
-192.137
-152.214
-86.343
11.295
127.918
250.496
367.163
460.976
526.868
562.003
562.674
531.772
470.261
378.534
255.97
101.295
-78.711
-268.095
-440.146
-567.017
-635.378
-648.976
-626.414
-588.951
-548.72
-507.63
-461.716
-410.335
-357.118
-307.092
-266.089
-236.244
-216.935
-207.688
-205.841
-207.371
-209.342
-209.798
-207.818
-203.586
-196.937
-187.057
-174.178
-159.784
-145.583
-132.804
-121.837
-112.408
-104.381
-98.024
-93.4
-90.04
-87.098
-83.849
-79.974
-75.481
-70.498
-65.011
-58.921
-52.228
-45.075
-37.637
-30.046
-22.357
-14.542
-6.606
1.388
9.359
17.197
24.837
32.263
39.468
46.457
53.238
59.811
66.191
72.416
78.519
84.524
90.452
96.305
102.093
107.834
113.555
119.28
125.029
130.809
136.623
142.472
148.352
154.26
160.182
166.101
172
177.865
183.681
189.434
195.105
200.674
206.119
211.419
216.55
221.486
226.202
230.672
234.87
238.774
242.36
245.607
248.494
251.003
253.117
254.819
256.098
256.941
257.338
257.281
256.768
255.794
254.362
252.475
250.139
247.365
244.165
240.555
236.554
232.183
227.467
222.43
217.103
211.515
205.698
199.687
193.515
187.219
180.836
174.404
167.958
161.536
155.173
148.904
142.763
136.781
130.989
125.416
120.087
115.029
110.264
105.811
101.69
97.916
94.5
91.452
88.78
86.486
84.572
83.033
81.867
81.065
80.618
80.512
80.734
81.267
82.094
83.197
84.553
86.14
87.936
89.917
92.059
94.337
96.729
99.21
101.757
104.351
106.968
109.59
112.198
114.772
117.295
119.754
122.132
124.417
126.596
128.659
130.597
132.403
134.071
135.598
136.977
138.207
139.285
140.21
140.982
141.598
142.055
142.351
142.485
142.458
142.269
141.916
141.4
140.722
139.89
138.906
137.772
136.489
135.056
133.472
131.735
129.841
127.783
125.558
123.162
120.598
117.872
114.987
111.944
108.739
105.355
101.787
98.03
94.082
89.94
85.617
81.135
76.533
71.869
67.189
62.529
57.915
53.364
48.899
44.542
40.314
36.24
32.34
28.631
25.129
21.839
18.721
15.688
12.633
9.409
5.908
2.068
-2.188
-6.945
-12.279
-18.27
-24.969
-32.349
-40.461
-49.468
-59.331
-69.852
-80.583
-90.714
-99.515
-106.478
-110.927
-112.122
-109.892
-104.479
-96.863
-89.026
-82.617
-78.799
-78.939
-83.999
-93.74
-106.997
-121.081
-131.717
-134.741
-126.218
-101.894
-57.862
5.566
83.93
172.474
264.755
361.075
468.957
585.399
699.548
790.012
824.16
786.56
679.162
515.328
322.673
123.188
-66.475
-227.303
-346.782
-417.334
-440.661
-432.652
-408.733
-378.304
-344.43
-301.772
-249.264
-192.907
-138.781
-93.164
-59.298
-36.215
-22.576
-17.485
-18.125
-20.49
-22.238
-22.132
-19.719
-15.638
-9.987
-2.045
7.44
16.55
24.235
29.891
33.447
35.584
36.506
35.904
34.067
31.746
29.485
27.756
26.735
26.202
26.117
26.603
27.664
29.242
31.238
33.497
35.939
38.577
41.388
44.328
47.336
50.316
53.215
56.019
58.726
61.35
63.906
66.408
68.879
71.35
73.854
76.418
79.063
81.803
84.654
87.629
90.75
94.041
97.517
101.184
105.046
109.099
113.335
117.749
122.326
127.048
131.9
136.864
141.926
147.068
152.272
157.517
162.782
168.043
173.276
178.454
183.551
188.539
193.392
198.084
202.591
206.889
210.955
214.767
218.306
221.553
224.49
227.104
229.378
231.302
232.867
234.063
234.887
235.333
235.401
235.092
234.407
233.354
231.939
230.172
228.064
225.629
222.883
219.844
216.53
212.961
209.16
205.149
200.952
196.593
192.096
187.486
182.787
178.022
173.216
168.39
163.567
158.766
154.006
149.305
144.68
140.146
135.715
131.401
127.212
123.16
119.25
115.489
111.881
108.428
105.131
101.99
99
96.158
93.457
90.891
88.451
86.128
83.911
81.79
79.755
77.794
75.896
74.049
72.243
70.466
68.708
66.958
65.208
63.449
61.675
59.879
58.055
56.201
54.311
52.385
50.421
48.418
46.375
44.291
42.169
40.009
37.814
35.588
33.335
31.059
28.766
26.462
24.156
21.854
19.562
17.283
15.02
12.777
10.556
8.359
6.185
4.036
1.915
-0.174
-2.223
-4.227
-6.185
-8.096
-9.962
-11.785
-13.567
-15.314
-17.03
-18.715
-20.372
-21.996
-23.579
-25.12
-26.62
-28.086
-29.547
-31.025
-32.533
-34.086
-35.685
-37.321
-38.99
-40.667
-42.311
-43.891
-45.367
-46.708
-47.908
-48.947
-49.807
-50.466
-50.863
-50.944
-50.69
-50.1
-49.218
-48.115
-46.844
-45.479
-44.123
-42.897
-41.968
-41.498
-41.617
-42.461
-44.091
-46.645
-50.42
-55.508
-61.765
-68.771
-75.711
-81.861
-86.852
-90.142
-91.025
-89.349
-85.355
-80.179
-76.098
-74.907
-77.656
-85.34
-98.431
-116.301
-137.571
-158.928
-175.144
-181.693
-174.525
-149.769
-104.797
-37.998
48.882
148.899
253.95
356.087
452.969
548.699
640.609
720.234
770.908
768.686
703.793
580.605
410.945
214.857
10.951
-186.864
-358.199
-478.873
-537.442
-533.454
-482.491
-416.178
-355.314
-308.523
-276.353
-248.791
-221.287
-195.838
-174.711
-161.452
-156.047
-155.265
-155.766
-154.501
-150.211
-142.953
-133.162
-121.714
-109.509
-97.381
-86.375
-77.374
-70.696
-66.328
-63.974
-63.165
-63.546
-64.776
-66.489
-68.343
-70.026
-71.322
-72.13
-72.412
-72.139
-71.285
-69.818
-67.719
-65.031
-61.814
-58.133
-54.052
-49.615
-44.88
-39.914
-34.793
-29.604
-24.406
-19.225
-14.075
-8.96
-3.874
1.183
6.226
11.29
16.406
21.598
26.886
32.28
37.79
43.438
49.241
55.214
61.364
67.691
74.189
80.854
87.676
94.64
101.726
108.91
116.169
123.482
130.829
138.188
145.535
152.847
160.098
167.263
174.318
181.233
187.981
194.533
200.861
206.939
212.742
218.246
223.427
228.261
232.73
236.813
240.494
243.755
246.583
248.964
250.888
252.348
253.338
253.855
253.898
253.468
252.569
251.207
249.39
247.129
244.434
241.32
237.803
233.899
229.628
225.009
220.065
214.816
209.287
203.503
197.487
191.265
184.861
178.3
171.606
164.805
157.919
150.971
143.985
136.981
129.982
123.006
116.074
109.204
102.412
95.714
89.124
82.655
76.319
70.125
64.082
58.198
52.478
46.928
41.551
36.35
31.328
26.485
21.823
17.34
13.035
8.906
4.952
1.168
-2.447
-5.896
-9.181
-12.305
-15.27
-18.08
-20.735
-23.239
-25.594
-27.802
-29.867
-31.792
-33.581
-35.236
-36.76
-38.156
-39.427
-40.576
-41.604
-42.515
-43.31
-43.991
-44.563
-45.03
-45.399
-45.677
-45.871
-45.987
-46.033
-46.017
-45.944
-45.818
-45.64
-45.412
-45.137
-44.817
-44.461
-44.077
-43.675
-43.264
-42.856
-42.455
-42.07
-41.701
-41.345
-40.997
-40.657
-40.331
-40.043
-39.82
-39.681
-39.646
-39.724
-39.909
-40.192
-40.547
-40.928
-41.296
-41.611
-41.838
-41.976
-42.022
-41.976
-41.839
-41.574
-41.125
-40.477
-39.624
-38.586
-37.453
-36.302
-35.232
-34.401
-33.945
-33.994
-34.69
-36.086
-38.199
-41.084
-44.781
-49.441
-55.328
-62.514
-70.905
-80.242
-89.906
-99.187
-107.375
-113.541
-116.817
-116.774
-113.271
-107.162
-100.494
-95.633
-95.558
-101.146
-109.915
-119.706
-128.207
-138.342
-159.69
-194.865
-238.136
-271.106
-263.915
-199.572
-77.328
87.72
268.954
448.39
612.602
749.334
843.594
871.729
820.273
688.21
486.895
245.195
-9.896
-252.37
-451.54
-588.383
-655.048
-655.969
-615.313
-560.109
-505.894
-459.757
-418.305
-373.939
-327.236
-282.256
-243.683
-216.639
-201.584
-195.886
-195.909
-197.462
-197.625
-195.187
-189.769
-181.656
-171.208
-158.741
-145.647
-133.47
-123.347
-116.05
-111.538
-109.336
-109.145
-110.727
-113.438
-116.677
-119.938
-122.731
-124.957
-126.642
-127.723
-128.176
-128.003
-127.165
-125.626
-123.382
-120.413
-116.781
-112.627
-108.073
-103.246
-98.264
-93.233
-88.256
-83.401
-78.689
-74.102
-69.607
-65.195
-60.87
-56.657
-52.577
-48.628
-44.779
-40.979
-37.186
-33.361
-29.465
-25.458
-21.296
-16.953
-12.428
-7.739
-2.908
2.052
7.133
12.329
17.635
23.036
28.516
34.057
39.642
45.25
50.859
56.441
61.967
67.411
72.749
77.964
83.037
87.95
92.68
97.21
101.522
105.599
109.424
112.979
116.249
119.219
121.876
124.213
126.22
127.892
129.224
130.215
130.865
131.176
131.154
130.804
130.134
129.155
127.879
126.318
124.489
122.408
120.092
117.561
114.835
111.935
108.883
105.701
102.409
99.029
95.582
92.089
88.568
85.038
81.519
78.028
74.581
71.197
67.888
64.67
61.554
58.551
55.671
52.921
50.306
47.831
45.499
43.311
41.267
39.367
37.609
35.989
34.504
33.149
31.919
30.808
29.81
28.916
28.119
27.413
26.791
26.246
25.773
25.367
25.021
24.731
24.494
24.304
24.158
24.051
23.978
23.935
23.918
23.924
23.95
23.992
24.049
24.119
24.201
24.294
24.399
24.512
24.631
24.752
24.87
24.978
25.071
25.142
25.183
25.192
25.163
25.093
24.984
24.834
24.638
24.393
24.091
23.721
23.273
22.737
22.109
21.385
20.563
19.642
18.63
17.528
16.342
15.062
13.659
12.108
10.391
8.497
6.433
4.211
1.844
-0.642
-3.203
-5.794
-8.365
-10.881
-13.33
-15.709
-18.014
-20.223
-22.267
-24.09
-25.665
-26.998
-28.137
-29.128
-30.01
-30.844
-31.72
-32.783
-34.203
-36.12
-38.667
-41.939
-45.964
-50.886
-56.954
-64.192
-72.434
-81.222
-89.73
-97.298
-103.463
-107.561
-109.049
-107.896
-104.491
-100.195
-97.139
-97.011
-101.383
-111.68
-128.105
-149.72
-174.427
-198.168
-216.231
-224.185
-216.685
-188.942
-138.428
-66.375
21.531
118.082
217.752
320.598
427.642
532.869
622.453
674.257
668.955
601.545
480.376
322.344
143.445
-43.589
-225.953
-386.094
-503.22
-565.296
-574.979
-549.732
-511.091
-471.563
-433.071
-390.018
-339.263
-284.387
-231.707
-188.014
-156.851
-138.632
-132.125
-134.617
-142.688
-152.425
-161.065
-167.401
-170.486
-169.439
-164.031
-154.568
-142.42
-129.987
-118.723
-109.079
-101.362
-95.664
-91.981
-90.322
-90.154
-90.405
-90.406
-89.877
-88.698
-86.989
-84.775
-81.958
-78.573
-74.768
-70.659
-66.335
-61.825
-57.075
-52.088
-46.916
-41.626
-36.311
-31.025
-25.778
-20.572
-15.398
-10.242
-5.104
0.031
5.189
10.391
15.654
20.986
26.381
31.844
37.387
43.028
48.789
54.678
60.695
66.834
73.085
79.439
85.88
92.39
98.944
105.518
112.093
118.649
125.166
131.622
137.993
144.254
150.38
156.344
162.122
167.687
173.011
178.071
182.844
187.307
191.44
195.224
198.642
201.678
204.318
206.551
208.367
209.759
210.719
211.245
211.336
210.993
210.219
209.021
207.405
205.383
202.967
200.172
197.014
193.511
189.682
185.549
181.133
176.457
171.544
166.418
161.103
155.624
150.004
144.269
138.442
132.547
126.604
120.637
114.665
108.709
102.785
96.911
91.103
85.376
79.742
74.214
68.802
63.513
58.356
53.336
48.456
43.719
39.127
34.678
30.371
26.206
22.178
18.283
14.519
10.879
7.36
3.954
0.657
-2.535
-5.629
-8.627
-11.534
-14.354
-17.089
-19.741
-22.311
-24.801
-27.212
-29.546
-31.803
-33.984
-36.09
-38.12
-40.076
-41.955
-43.758
-45.482
-47.126
-48.687
-50.164
-51.555
-52.863
-54.089
-55.235
-56.305
-57.303
-58.232
-59.097
-59.897
-60.635
-61.308
-61.917
-62.464
-62.951
-63.387
-63.779
-64.14
-64.479
-64.806
-65.128
-65.45
-65.776
-66.102
-66.426
-66.749
-67.081
-67.452
-67.889
-68.41
-69.034
-69.767
-70.605
-71.544
-72.568
-73.64
-74.725
-75.788
-76.804
-77.777
-78.714
-79.623
-80.491
-81.27
-81.922
-82.428
-82.798
-83.069
-83.277
-83.46
-83.68
-84.03
-84.637
-85.649
-87.18
-89.315
-92.132
-95.649
-99.979
-105.381
-111.908
-119.421
-127.566
-135.626
-142.952
-149.14
-153.526
-155.265
-154.106
-150.264
-144.773
-139.837
-137.38
-138.77
-145.672
-159.36
-179.71
-205.534
-233.803
-259.387
-277.258
-282.827
-270.883
-236.551
-179.219
-102.31
-10.784
87.169
189.645
302.455
422.421
540.043
635.927
678.071
648.957
548.312
386.12
185.131
-32.613
-250.537
-447.293
-598.24
-689.134
-716.686
-693.381
-647.107
-596.352
-548.463
-503.346
-452.922
-396.756
-340.498
-289.376
-249.459
-222.935
-208.98
-206.01
-210.563
-218.651
-227.044
-233.698
-237.957
-239.439
-237.329
-231.434
-222.414
-211.75
-201.475
-192.713
-185.559
-180.014
-176.156
-173.961
-173.35
-173.775
-174.255
-174.222
-173.497
-172.029
-169.933
-167.23
-163.809
-159.705
-155.057
-149.952
-144.524
-138.845
-132.897
-126.727
-120.403
-113.996
-107.603
-101.276
-95.01
-88.796
-82.614
-76.445
-70.305
-64.191
-58.096
-52.029
-45.961
-39.875
-33.768
-27.626
-21.428
-15.157
-8.785
-2.291
4.314
11.022
17.819
24.687
31.617
38.596
45.606
52.633
59.658
66.662
73.63
80.543
87.376
94.108
100.712
107.16
113.431
119.503
125.354
130.964
136.312
141.379
146.147
150.602
154.726
158.505
161.923
164.968
167.628
169.894
171.756
173.208
174.246
174.868
175.071
174.858
174.233
173.201
171.77
169.951
167.754
165.193
162.284
159.043
155.49
151.644
147.526
143.16
138.568
133.773
128.799
123.669
118.407
113.035
107.576
102.05
96.479
90.885
85.288
79.707
74.161
68.668
63.245
57.907
52.669
47.545
42.544
37.679
32.958
28.391
23.984
19.744
15.676
11.784
8.071
4.538
1.187
-1.984
-4.977
-7.794
-10.437
-12.91
-15.215
-17.356
-19.335
-21.154
-22.816
-24.322
-25.675
-26.88
-27.939
-28.856
-29.635
-30.278
-30.789
-31.172
-31.43
-31.564
-31.579
-31.478
-31.263
-30.941
-30.518
-30.003
-29.404
-28.733
-28.001
-27.218
-26.396
-25.541
-24.664
-23.769
-22.862
-21.946
-21.026
-20.108
-19.203
-18.327
-17.493
-16.715
-16.005
-15.369
-14.816
-14.352
-13.971
-13.668
-13.442
-13.298
-13.262
-13.366
-13.629
-14.067
-14.687
-15.475
-16.422
-17.508
-18.679
-19.889
-21.092
-22.247
-23.365
-24.47
-25.569
-26.66
-27.706
-28.655
-29.497
-30.233
-30.853
-31.4
-31.907
-32.43
-33.116
-34.069
-35.396
-37.237
-39.616
-42.529
-46.02
-50.07
-54.755
-60.335
-66.782
-73.812
-81.085
-87.903
-93.577
-97.651
-99.404
-98.063
-93.542
-86.545
-78.447
-71.234
-67.303
-68.826
-77.086
-93.081
-115.007
-136.888
-154.993
-166.776
-170.93
-172.92
-171.096
-154.912
-114.534
-33.886
94.039
256.29
432.246
589.803
693.535
725.561
684.506
581.9
442.416
284.329
112.007
-68.564
-249.154
-412.311
-530.381
-588.203
-589.84
-555.063
-509.515
-469.059
-435.406
-401.25
-361.883
-319.13
-278.223
-245.69
-223.738
-210.419
-203.384
-199.864
-197.354
-194.099
-188.94
-181.498
-172.203
-161.928
-151.448
-141.435
-132.692
-125.982
-121.625
-119.527
-119.249
-120.145
-121.723
-123.628
-125.496
-127.022
-127.979
-128.212
-127.701
-126.498
-124.606
-121.994
-118.59
-114.302
-109.143
-103.22
-96.685
-89.701
-82.394
-74.871
-67.247
-59.631
-52.097
-44.683
-37.374
-30.141
-22.979
-15.902
-8.944
-2.15
4.472
10.946
17.312
23.609
29.866
36.108
42.367
48.679
55.063
61.513
68.006
74.509
81.003
87.476
93.916
100.314
106.654
112.916
119.08
125.128
131.039
136.789
142.354
147.703
152.812
157.66
162.231
166.51
170.481
174.128
177.437
180.396
182.995
185.221
187.065
188.516
189.566
190.212
190.45
190.278
189.7
188.717
187.335
185.563
183.411
180.889
178.012
174.793
171.25
167.4
163.263
158.859
154.211
149.34
144.272
139.032
133.644
128.135
122.529
116.852
111.127
105.379
99.63
93.901
88.213
82.587
77.041
71.594
66.262
61.061
56.005
51.105
46.372
41.812
37.434
33.241
29.237
25.423
21.8
18.367
15.123
12.067
9.192
6.495
3.968
1.606
-0.6
-2.657
-4.575
-6.361
-8.024
-9.57
-11.006
-12.34
-13.578
-14.726
-15.789
-16.773
-17.682
-18.522
-19.298
-20.014
-20.673
-21.277
-21.827
-22.326
-22.774
-23.172
-23.52
-23.816
-24.062
-24.259
-24.413
-24.527
-24.602
-24.643
-24.653
-24.637
-24.597
-24.535
-24.446
-24.33
-24.188
-24.022
-23.839
-23.644
-23.444
-23.247
-23.063
-22.9
-22.763
-22.653
-22.565
-22.497
-22.453
-22.443
-22.49
-22.615
-22.831
-23.153
-23.592
-24.141
-24.789
-25.508
-26.248
-26.969
-27.645
-28.247
-28.767
-29.197
-29.513
-29.7
-29.731
-29.568
-29.191
-28.583
-27.749
-26.755
-25.691
-24.669
-23.836
-23.291
-23.139
-23.524
-24.556
-26.357
-29.048
-32.66
-37.292
-43.174
-50.351
-58.679
-67.757
-76.753
-84.88
-91.614
-96.224
-97.925
-96.493
-92.109
-85.883
-80.039
-76.43
-76.34
-81.166
-91.782
-107.844
-128.108
-149.221
-165.885
-173.551
-167.971
-144.535
-99.803
-31.952
57.103
160.201
269.003
376.962
483.193
589.279
689.081
770.266
812.768
795.756
714.982
576.177
391.756
183.525
-30.635
-230.069
-386.718
-484.765
-520.075
-503.666
-463.22
-418.277
-377.269
-339.655
-296.605
-247.154
-196.337
-149.125
-111.737
-85.887
-70.159
-63.942
-64.735
-68.788
-73.287
-76.349
-77.193
-76.058
-72.859
-66.843
-58.099
-47.924
-37.943
-29.292
-22.309
-16.723
-12.312
-9.272
-7.645
-6.951
-6.414
-5.384
-3.56
-0.961
2.28
6.176
10.796
16.11
21.985
28.257
34.802
41.575
48.576
55.774
63.094
70.436
77.711
84.871
91.897
98.782
105.524
112.123
118.586
124.928
131.163
137.301
143.349
149.304
155.166
160.935
166.618
172.23
177.783
183.282
188.727
194.116
199.439
204.69
209.857
214.925
219.881
224.713
229.412
233.969
238.376
242.622
246.696
250.587
254.282
257.767
261.028
264.051
266.824
269.334
271.572
273.528
275.194
276.561
277.624
278.379
278.819
278.943
278.748
278.233
277.397
276.242
274.769
272.982
270.884
268.481
265.778
262.783
259.504
255.95
252.132
248.062
243.752
239.217
234.472
229.531
224.412
219.132
213.707
208.156
202.496
196.745
190.921
185.039
179.116
173.17
167.216
161.268
155.342
149.45
143.605
137.82
132.105
126.47
120.925
115.478
110.138
104.912
99.808
94.832
89.99
85.287
80.726
76.312
72.045
67.927
63.959
60.139
56.469
52.947
49.573
46.347
43.268
40.335
37.548
34.907
32.41
30.055
27.841
25.766
23.828
22.024
20.353
18.813
17.402
16.117
14.957
13.918
13
12.196
11.502
10.91
10.41
9.995
9.655
9.381
9.163
8.992
8.863
8.769
8.708
8.675
8.664
8.668
8.676
8.675
8.655
8.602
8.506
8.359
8.155
7.889
7.565
7.182
6.738
6.223
5.612
4.881
4.015
3.002
1.843
0.549
-0.867
-2.385
-3.961
-5.56
-7.142
-8.673
-10.144
-11.555
-12.902
-14.174
-15.324
-16.306
-17.104
-17.728
-18.217
-18.618
-18.973
-19.331
-19.777
-20.427
-21.418
-22.886
-24.932
-27.645
-31.058
-35.263
-40.491
-46.779
-53.965
-61.683
-69.194
-75.803
-81.077
-84.39
-84.986
-82.777
-78.09
-71.829
-66.09
-62.743
-63.086
-68.84
-81.14
-99.344
-121.989
-146.257
-167.064
-179.728
-180.039
-162.753
-124.197
-63.663
18.048
117.381
227.268
340.296
448.234
540.598
608.226
644.517
644.313
605.792
531.097
424.392
292.472
145.377
-6.65
-153.98
-286.875
-397.189
-479.363
-530.774
-551.971
-546.309
-518.142
-472.315
-415.242
-354.283
-296.337
-245.923
-205.165
-174.667
-154.53
-144.849
-144.236
-149.38
-156.275
-162.276
-166.292
-168.009
-167.193
-163.094
-155.568
-145.857
-135.992
-127.399
-120.567
-115.42
-111.721
-109.623
-109.266
-110.205
-111.554
-112.577
-112.909
-112.505
-111.526
-109.986
-107.784
-104.93
-101.539
-97.762
-93.726
-89.483
-85.007
-80.31
-75.454
-70.518
-65.607
-60.783
-56.062
-51.452
-46.945
-42.53
-38.203
-33.952
-29.746
-25.564
-21.389
-17.206
-13.015
-8.812
-4.582
-0.305
4.038
8.463
12.971
17.561
22.227
26.961
31.752
36.584
41.439
46.298
51.147
55.973
60.761
65.498
70.166
74.749
79.229
83.589
87.809
91.869
95.75
99.435
102.906
106.147
109.142
111.876
114.336
116.508
118.38
119.943
121.186
122.102
122.684
122.93
122.839
122.412
121.652
120.564
119.157
117.439
115.423
113.121
110.546
107.712
104.637
101.338
97.831
94.136
90.271
86.254
82.105
77.842
73.485
69.052
64.56
60.027
55.471
50.91
46.362
41.843
37.37
32.959
28.623
24.376
20.231
16.194
12.275
8.479
4.811
1.272
-2.135
-5.412
-8.558
-11.578
-14.472
-17.247
-19.906
-22.457
-24.907
-27.263
-29.532
-31.718
-33.829
-35.87
-37.846
-39.761
-41.617
-43.42
-45.172
-46.882
-48.554
-50.196
-51.813
-53.412
-54.999
-56.581
-58.164
-59.749
-61.339
-62.938
-64.548
-66.171
-67.809
-69.463
-71.135
-72.831
-74.554
-76.309
-78.096
-79.917
-81.771
-83.66
-85.582
-87.534
-89.512
-91.512
-93.535
-95.588
-97.68
-99.818
-102.005
-104.243
-106.53
-108.868
-111.248
-113.651
-116.059
-118.458
-120.845
-123.24
-125.663
-128.123
-130.627
-133.17
-135.736
-138.316
-140.878
-143.369
-145.737
-147.924
-149.914
-151.737
-153.418
-154.976
-156.41
-157.652
-158.679
-159.532
-160.212
-160.727
-161.11
-161.322
-161.438
-161.683
-162.123
-162.716
-163.429
-164.15
-164.901
-165.917
-167.262
-168.845
-170.95
-174.146
-178.454
-183.304
-187.916
-190.844
-192.439
-195.644
-199.497
-200.546
-194.033
-171.9
-137.258
-103.059
-82.053
-88.11
-121.085
-168.409
-217.249
-255.672
-279.923
-287.776
-276.228
-240.049
-171.55
-74.713
42.47
168.287
286.29
389.945
473.268
528.794
552.982
539.188
483.977
391.069
266.662
119.795
-38.566
-197.791
-347.318
-476.278
-576.384
-643.332
-675.764
-674.507
-642.087
-583.076
-504.249
-414.401
-321.885
-232.912
-152.052
-83.253
-30.711
3.059
18.446
18.286
6.194
-14.841
-42.538
-74.298
-105.529
-131.865
-151.253
-163.374
-168.816
-168.219
-161.596
-149.028
-132.818
-116.065
-100.469
-86.856
-75.37
-65.809
-58.674
-54.815
-53.644
-53.688
-54.057
-54.166
-53.9
-53.558
-52.947
-51.516
-49.276
-46.671
-44.039
-41.676
-39.614
-37.609
-35.599
-33.669
-31.815
-29.977
-28.07
-25.982
-23.683
-21.23
-18.662
-16.001
-13.255
-10.398
-7.412
-4.297
-1.052
2.318
5.814
9.437
13.19
17.068
21.058
25.143
29.314
33.562
37.882
42.267
46.701
51.162
55.628
60.076
64.481
68.822
73.072
77.205
81.197
85.024
88.666
92.103
95.318
98.291
101.007
103.45
105.608
107.471
109.027
110.269
111.191
111.789
112.061
112.008
111.633
110.939
109.934
108.627
107.027
105.145
102.996
100.594
97.956
95.1
92.044
88.809
85.417
81.888
78.246
74.513
70.711
66.862
62.986
59.103
55.235
51.399
47.614
43.897
40.265
36.733
33.313
30.02
26.863
23.851
20.992
18.29
15.752
13.38
11.177
9.144
7.281
5.588
4.063
2.703
1.506
0.464
-0.426
-1.172
-1.779
-2.253
-2.603
-2.833
-2.951
-2.962
-2.872
-2.687
-2.413
-2.058
-1.63
-1.136
-0.583
0.022
0.671
1.358
2.077
2.824
3.594
4.382
5.183
5.992
6.803
7.606
8.393
9.155
9.882
10.565
11.195
11.767
12.274
12.714
13.084
13.383
13.606
13.751
13.807
13.763
13.61
13.339
12.945
12.427
11.783
11.015
10.136
9.152
8.07
6.889
5.584
4.136
2.532
0.767
-1.153
-3.21
-5.39
-7.667
-9.988
-12.306
-14.571
-16.746
-18.836
-20.852
-22.79
-24.633
-26.329
-27.826
-29.109
-30.189
-31.075
-31.787
-32.348
-32.798
-33.239
-33.811
-34.641
-35.841
-37.493
-39.646
-42.334
-45.684
-49.86
-54.879
-60.595
-66.603
-72.253
-76.974
-80.271
-81.513
-80.191
-76.224
-69.956
-62.621
-56.191
-52.434
-53.042
-59.528
-72.231
-90.399
-112.36
-134.567
-152.263
-160.853
-155.354
-131.299
-86.799
-21.85
61.921
159.741
264.785
369.423
464.254
539.684
588.743
606.122
588.005
534.318
448.142
334.971
203.66
64.699
-72.59
-199.153
-305.897
-386.436
-437.721
-459.759
-456.066
-432.032
-392.676
-343.507
-291.436
-242.419
-200.003
-165.343
-137.275
-114.022
-94.883
-79.371
-65.64
-51.7
-36.849
-21.881
-8.917
0.28
5.707
8.426
8.83
6.813
2.635
-2.737
-7.425
-9.885
-9.991
-8.651
-6.602
-4.12
-1.227
2.028
5.115
7.525
9.337
11.109
13.43
16.647
20.772
25.581
30.927
36.736
42.887
49.199
55.464
61.522
67.317
72.897
78.34
83.698
88.979
94.156
99.189
104.043
108.716
113.243
117.669
122.037
126.376
130.714
135.086
139.529
144.06
148.667
153.317
157.975
162.626
167.263
171.886
176.489
181.058
185.576
190.026
194.395
198.664
202.816
206.828
210.674
214.333
217.789
221.03
224.045
226.818
229.334
231.577
233.536
235.2
236.558
237.597
238.307
238.68
238.71
238.395
237.732
236.722
235.367
233.672
231.644
229.291
226.624
223.655
220.397
216.865
213.076
209.045
204.79
200.329
195.682
190.869
185.909
180.825
175.638
170.37
165.042
159.677
154.294
148.915
143.558
138.243
132.986
127.806
122.717
117.736
112.876
108.147
103.562
99.127
94.85
90.736
86.786
83.002
79.382
75.925
72.627
69.484
66.491
63.642
60.931
58.351
55.895
53.555
51.325
49.194
47.154
45.195
43.311
41.492
39.73
38.019
36.35
34.719
33.12
31.549
30.002
28.473
26.959
25.457
23.963
22.476
20.995
19.518
18.047
16.584
15.131
13.693
12.271
10.869
9.488
8.127
6.787
5.465
4.157
2.862
1.575
0.296
-0.973
-2.233
-3.482
-4.717
-5.937
-7.143
-8.336
-9.522
-10.706
-11.893
-13.086
-14.286
-15.492
-16.707
-17.933
-19.165
-20.403
-21.655
-22.934
-24.271
-25.691
-27.199
-28.801
-30.501
-32.292
-34.173
-36.131
-38.118
-40.091
-42.008
-43.832
-45.56
-47.186
-48.683
-50.018
-51.129
-51.988
-52.632
-53.092
-53.37
-53.472
-53.371
-53.107
-52.876
-52.859
-53.231
-54.171
-55.728
-58.032
-61.348
-65.731
-71.056
-76.988
-82.846
-88.081
-92.551
-95.899
-97.614
-97.733
-96.535
-94.926
-94.624
-96.751
-101.702
-110.123
-122.691
-139.016
-157.842
-176.633
-191.569
-199.611
-198.485
-185.528
-157.881
-113.897
-53.775
20.284
104.273
193.821
284.342
370.237
444.223
498.901
529.013
530.642
502.921
448.864
369.729
267.046
142.941
-3.484
-163.278
-318.743
-451.92
-542.22
-584.676
-590.623
-570.946
-539.25
-501.232
-452.429
-393.874
-328.608
-261
-199.365
-149.03
-112.272
-90.278
-82.036
-85.19
-96.958
-114.581
-135.101
-155.163
-172.041
-184.037
-190.245
-190.885
-186.99
-179.494
-169.694
-159.484
-150.215
-142.618
-137.086
-133.391
-131.069
-129.845
-129.228
-128.493
-127.231
-125.236
-122.432
-119.01
-115.124
-110.82
-106.211
-101.417
-96.502
-91.529
-86.53
-81.483
-76.392
-71.267
-66.111
-60.937
-55.742
-50.508
-45.22
-39.855
-34.4
-28.854
-23.216
-17.497
-11.702
-5.835
0.103
6.108
12.178
18.305
24.484
30.71
36.971
43.25
49.526
55.771
61.963
68.084
74.113
80.033
85.823
91.464
96.936
102.22
107.294
112.137
116.727
121.04
125.057
128.759
132.131
135.157
137.824
140.12
142.035
143.562
144.694
145.427
145.759
145.688
145.218
144.352
143.099
141.468
139.469
137.116
134.425
131.413
128.097
124.496
120.633
116.527
112.201
107.678
102.982
98.136
93.165
88.091
82.941
77.737
72.503
67.261
62.033
56.841
51.704
46.642
41.672
36.81
32.07
27.467
23.01
18.71
14.574
10.605
6.809
3.185
-0.266
-3.547
-6.662
-9.617
-12.418
-15.072
-17.589
-19.976
-22.245
-24.404
-26.464
-28.433
-30.321
-32.138
-33.894
-35.597
-37.255
-38.877
-40.472
-42.047
-43.608
-45.161
-46.712
-48.263
-49.818
-51.38
-52.947
-54.521
-56.098
-57.676
-59.252
-60.82
-62.376
-63.912
-65.421
-66.894
-68.324
-69.703
-71.022
-72.273
-73.447
-74.538
-75.543
-76.461
-77.29
-78.031
-78.682
-79.248
-79.73
-80.129
-80.445
-80.674
-80.814
-80.867
-80.833
-80.717
-80.528
-80.272
-79.961
-79.609
-79.222
-78.809
-78.374
-77.914
-77.436
-76.947
-76.459
-76
-75.596
-75.271
-75.049
-74.947
-74.958
-75.075
-75.272
-75.508
-75.758
-75.993
-76.188
-76.336
-76.421
-76.437
-76.388
-76.244
-75.97
-75.54
-74.927
-74.151
-73.303
-72.453
-71.701
-71.166
-70.902
-71.031
-71.704
-72.999
-75.051
-77.952
-81.691
-86.435
-92.432
-99.643
-107.902
-116.801
-125.442
-133.113
-139.255
-142.974
-143.697
-141.551
-137.015
-131.333
-126.512
-124.591
-127.481
-136.901
-153.611
-174.628
-196.197
-216.557
-231.058
-239.121
-240.07
-222.092
-180.555
-113.312
-16.025
97.515
219.406
351.067
481.092
603.028
703.031
750.494
728.885
635.832
480.796
293.648
105.882
-65.115
-208.436
-321.874
-412.948
-482.434
-529.747
-557.051
-560.181
-538.807
-496.969
-438.651
-372.75
-308.036
-249.91
-201.924
-165.392
-141.049
-129.144
-128.235
-135.483
-146.873
-158.471
-168.151
-174.608
-176.466
-173.105
-164.65
-151.949
-137.048
-122.22
-108.613
-96.824
-87.381
-80.375
-75.769
-73.396
-72.445
-71.866
-71.094
-69.843
-67.988
-65.636
-62.791
-59.375
-55.48
-51.267
-46.834
-42.254
-37.527
-32.591
-27.456
-22.18
-16.834
-11.516
-6.279
-1.133
3.917
8.874
13.747
18.535
23.252
27.932
32.596
37.259
41.924
46.589
51.259
55.953
60.692
65.497
70.377
75.333
80.363
85.459
90.614
95.814
101.042
106.275
111.493
116.679
121.817
126.892
131.883
136.77
141.533
146.149
150.598
154.857
158.903
162.713
166.265
169.541
172.521
175.188
177.524
179.515
181.148
182.411
183.295
183.792
183.897
183.606
182.918
181.836
180.363
178.507
176.274
173.678
170.731
167.448
163.849
159.95
155.773
151.338
146.669
141.79
136.725
131.499
126.136
120.664
115.109
109.498
103.857
98.211
92.586
87.006
81.496
76.077
70.77
65.595
60.57
55.711
51.033
46.55
42.27
38.204
34.356
30.733
27.336
24.166
21.221
18.497
15.989
13.692
11.596
9.694
7.976
6.43
5.047
3.815
2.723
1.759
0.911
0.167
-0.487
-1.061
-1.567
-2.017
-2.421
-2.79
-3.133
-3.457
-3.77
-4.077
-4.385
-4.698
-5.018
-5.345
-5.678
-6.018
-6.362
-6.706
-7.047
-7.377
-7.69
-7.981
-8.243
-8.47
-8.655
-8.792
-8.875
-8.903
-8.873
-8.783
-8.631
-8.416
-8.136
-7.794
-7.389
-6.918
-6.38
-5.773
-5.1
-4.366
-3.575
-2.731
-1.842
-0.92
0.023
0.97
1.912
2.849
3.775
4.679
5.545
6.347
7.072
7.713
8.26
8.7
9.025
9.232
9.347
9.42
9.49
9.584
9.714
9.874
10.079
10.353
10.721
11.195
11.762
12.39
13.076
13.829
14.629
15.411
16.027
16.3
16.094
15.329
13.973
11.974
9.228
5.633
1.099
-4.411
-10.84
-18.199
-26.642
-36.176
-46.594
-57.394
-67.643
-76.438
-83.154
-87.087
-87.529
-84.289
-77.623
-68.627
-59.482
-52.259
-48.655
-50.364
-58.393
-72.359
-90.767
-110.441
-126.574
-134.232
-128.348
-103.853
-56.999
11.551
97.1
193.801
295.686
402.775
518.103
636.404
742.917
812.278
818.013
750.444
620.248
454.473
282.069
121.033
-22.867
-152.822
-269.096
-366.555
-439.51
-482.497
-494.936
-480.686
-444.218
-391.592
-330.592
-268.81
-212.243
-164.678
-127.588
-101.637
-87.707
-85.282
-91.606
-102.592
-114.287
-124.277
-131.778
-136.209
-136.46
-132.079
-123.693
-113.023
-102.402
-93.18
-85.623
-79.852
-76.101
-74.484
-74.955
-76.92
-79.239
-81.215
-82.612
-83.347
-83.512
-83.114
-82.038
-80.317
-78.145
-75.655
-72.942
-70.042
-66.891
-63.493
-59.915
-56.231
-52.548
-48.929
-45.386
-41.926
-38.546
-35.236
-32
-28.824
-25.672
-22.521
-19.352
-16.152
-12.929
-9.676
-6.375
-3.004
0.463
4.041
7.734
11.545
15.473
19.514
23.661
27.905
32.228
36.616
41.058
45.543
50.063
54.603
59.148
63.682
68.189
72.651
77.047
81.358
85.563
89.642
93.575
97.346
100.936
104.329
107.508
110.46
113.172
115.633
117.832
119.759
121.409
122.775
123.853
124.643
125.143
125.356
125.284
124.932
124.309
123.423
122.282
120.899
119.285
117.455
115.424
113.207
110.822
108.286
105.619
102.84
99.969
97.025
94.028
90.997
87.95
84.905
81.878
78.885
75.94
73.056
70.245
67.518
64.884
62.35
59.923
57.606
55.403
53.315
51.342
49.483
47.736
46.096
44.558
43.118
41.767
40.497
39.3
38.164
37.081
36.038
35.023
34.025
33.032
32.033
31.018
29.975
28.896
27.771
26.592
25.351
24.041
22.658
21.195
19.649
18.019
16.303
14.501
12.615
10.646
8.599
6.478
4.286
2.03
-0.286
-2.653
-5.066
-7.515
-9.993
-12.49
-14.994
-17.498
-19.988
-22.455
-24.889
-27.279
-29.619
-31.903
-34.124
-36.279
-38.362
-40.371
-42.301
-44.149
-45.909
-47.573
-49.139
-50.6
-51.954
-53.201
-54.341
-55.38
-56.323
-57.176
-57.942
-58.625
-59.224
-59.733
-60.155
-60.489
-60.741
-60.93
-61.075
-61.189
-61.288
-61.382
-61.465
-61.522
-61.521
-61.412
-61.156
-60.712
-60.048
-59.157
-58.024
-56.638
-54.999
-53.084
-50.867
-48.35
-45.537
-42.441
-39.129
-35.697
-32.269
-29.035
-26.161
-23.776
-22.014
-20.976
-20.777
-21.529
-23.3
-26.125
-30.058
-35.165
-41.385
-48.492
-56.014
-63.233
-69.371
-73.725
-75.734
-74.891
-71.098
-64.851
-57.061
-49.225
-43.085
-40.019
-40.661
-45.158
-52.703
-61.068
-67.507
-68.652
-60.178
-37.876
0.901
57.628
130.008
211.044
294.115
374.179
451.931
531.952
613.836
688.271
730.982
714.069
620.701
451.404
233.176
6.039
-191.871
-334.197
-417.039
-452.418
-462.182
-464.709
-465.521
-461.844
-443.755
-405.32
-350.526
-287.347
-224.89
-169.537
-123.612
-87.87
-63.206
-50.096
-47.431
-52.849
-63.988
-78.341
-93.405
-107.419
-118.538
-125.418
-128.022
-127.034
-123.228
-117.715
-111.882
-106.546
-102.415
-99.996
-99.144
-99.58
-101.01
-102.868
-104.491
-105.538
-105.759
-105.001
-103.355
-100.819
-97.436
-93.419
-88.952
-84.172
-79.185
-74.026
-68.71
-63.296
-57.816
-52.271
-46.663
-40.964
-35.161
-29.27
-23.297
-17.261
-11.161
-4.959
1.365
7.821
14.42
21.165
28.069
35.158
42.431
49.87
57.46
65.177
73.002
80.923
88.919
96.967
105.045
113.124
121.18
129.188
137.122
144.951
152.648
160.176
167.507
174.614
181.471
188.049
194.324
200.266
205.852
211.06
215.869
220.257
224.205
227.695
230.713
233.248
235.291
236.833
237.871
238.402
238.427
237.951
236.977
235.516
233.578
231.176
228.327
225.048
221.359
217.282
212.84
208.058
202.962
197.579
191.937
186.066
179.995
173.756
167.379
160.895
154.334
147.727
141.103
134.493
127.923
121.422
115.013
108.72
102.566
96.57
90.751
85.124
79.703
74.5
69.524
64.782
60.281
56.022
52.007
48.236
44.704
41.41
38.347
35.508
32.887
30.474
28.26
26.235
24.389
22.711
21.187
19.807
18.557
17.424
16.395
15.456
14.594
13.796
13.051
12.348
11.676
11.026
10.388
9.757
9.126
8.491
7.847
7.19
6.519
5.831
5.127
4.406
3.67
2.919
2.155
1.382
0.6
-0.186
-0.975
-1.766
-2.557
-3.349
-4.144
-4.946
-5.757
-6.579
-7.414
-8.261
-9.121
-9.992
-10.866
-11.74
-12.61
-13.474
-14.338
-15.211
-16.096
-16.997
-17.915
-18.849
-19.802
-20.77
-21.741
-22.707
-23.663
-24.616
-25.602
-26.65
-27.776
-28.99
-30.285
-31.643
-33.061
-34.52
-35.97
-37.37
-38.673
-39.855
-40.943
-41.958
-42.902
-43.743
-44.428
-44.92
-45.22
-45.358
-45.351
-45.211
-44.987
-44.757
-44.562
-44.46
-44.546
-44.876
-45.57
-46.796
-48.516
-50.769
-54.063
-58.721
-64.375
-70.511
-76.228
-80.039
-83.087
-86.368
-87.051
-84.628
-75.387
-55.93
-34.961
-18.87
-15.585
-34.555
-68.625
-110.312
-152.954
-184.849
-204.338
-210.221
-197.146
-163.222
-105.6
-23.089
80.402
197.814
320.098
437.146
537.593
611.382
651.488
652.746
613.453
536.262
426.031
290.191
139.334
-15.896
-165.379
-298.879
-408.332
-488.6
-537.061
-554.345
-543.619
-508.806
-455.482
-391.021
-322.945
-258.273
-201.931
-156.206
-122.513
-101.997
-94.048
-96.343
-105.226
-116.092
-125.956
-133.711
-138.319
-138.731
-134.7
-126.669
-116.261
-106.107
-97.707
-91.393
-87.316
-85.441
-85.666
-87.898
-91.499
-95.352
-98.778
-101.497
-103.422
-104.685
-105.298
-105.132
-104.15
-102.393
-99.927
-96.864
-93.316
-89.328
-84.973
-80.351
-75.577
-70.777
-66.028
-61.351
-56.724
-52.107
-47.491
-42.884
-38.318
-33.829
-29.428
-25.094
-20.794
-16.501
-12.193
-7.843
-3.417
1.132
5.829
10.674
15.642
20.705
25.843
31.044
36.297
41.592
46.912
52.239
57.552
62.834
68.064
73.22
78.272
83.191
87.947
92.517
96.884
101.028
104.93
108.571
111.933
115
117.759
120.195
122.291
124.034
125.413
126.417
127.041
127.279
127.126
126.582
125.648
124.327
122.625
120.549
118.108
115.314
112.179
108.72
104.952
100.894
96.567
91.993
87.194
82.197
77.026
71.709
66.271
60.738
55.137
49.494
43.832
38.175
32.547
26.971
21.468
16.059
10.766
5.606
0.596
-4.248
-8.913
-13.387
-17.66
-21.724
-25.573
-29.203
-32.61
-35.793
-38.751
-41.489
-44.01
-46.319
-48.425
-50.337
-52.066
-53.624
-55.024
-56.279
-57.402
-58.407
-59.307
-60.114
-60.841
-61.502
-62.106
-62.668
-63.198
-63.709
-64.21
-64.713
-65.224
-65.753
-66.305
-66.886
-67.501
-68.153
-68.844
-69.576
-70.351
-71.169
-72.03
-72.933
-73.876
-74.855
-75.868
-76.907
-77.968
-79.046
-80.131
-81.219
-82.303
-83.379
-84.445
-85.498
-86.539
-87.567
-88.581
-89.583
-90.574
-91.55
-92.511
-93.452
-94.368
-95.259
-96.123
-96.962
-97.78
-98.585
-99.381
-100.174
-100.966
-101.757
-102.547
-103.327
-104.089
-104.828
-105.544
-106.254
-106.979
-107.729
-108.517
-109.345
-110.201
-111.068
-111.923
-112.722
-113.421
-113.982
-114.37
-114.577
-114.614
-114.49
-114.203
-113.724
-113.014
-112.062
-110.873
-109.468
-107.898
-106.214
-104.491
-102.849
-101.402
-100.257
-99.538
-99.326
-99.673
-100.642
-102.238
-104.56
-107.808
-111.987
-116.904
-122.12
-126.847
-130.338
-132.062
-131.316
-127.351
-120.028
-109.663
-97.569
-86.232
-77.872
-74.27
-77.044
-86.946
-103.495
-125.278
-148.617
-167.783
-177.588
-172.587
-147.611
-100.273
-29.713
61.692
165.656
274.687
382.747
484.139
577.857
655.478
700.69
700.739
642.569
526.989
373.604
198.263
18.613
-147.232
-296.109
-418.191
-501.78
-551.99
-570.383
-562.321
-540.563
-504.661
-454.821
-397.24
-335.329
-275.85
-225.09
-183.944
-152.063
-129.561
-116.382
-110.996
-111.019
-113.818
-116.579
-118.133
-118.573
-117.309
-113.437
-107.078
-98.935
-90.193
-82.578
-76.813
-72.7
-70.204
-69.408
-70.196
-72.351
-75.351
-78.267
-80.561
-82.135
-82.895
-82.834
-81.896
-79.889
-76.771
-72.706
-67.833
-62.3
-56.288
-49.87
-43.145
-36.279
-29.373
-22.51
-15.746
-9.063
-2.437
4.125
10.606
16.963
23.154
29.173
35.033
40.765
46.424
52.047
57.673
63.353
69.123
75.003
81.002
87.101
93.267
99.476
105.708
111.951
118.196
124.428
130.627
136.773
142.84
148.804
154.64
160.316
165.803
171.072
176.098
180.864
185.355
189.555
193.448
197.02
200.255
203.139
205.661
207.806
209.561
210.919
211.87
212.41
212.54
212.26
211.573
210.486
209.007
207.146
204.916
202.333
199.413
196.174
192.635
188.819
184.746
180.442
175.931
171.237
166.387
161.407
156.324
151.163
145.95
140.71
135.467
130.245
125.068
119.955
114.929
110.009
105.213
100.557
96.058
91.725
87.571
83.602
79.824
76.239
72.85
69.654
66.648
63.827
61.186
58.715
56.407
54.248
52.228
50.334
48.552
46.869
45.271
43.743
42.272
40.844
39.448
38.07
36.699
35.323
33.931
32.512
31.059
29.562
28.013
26.408
24.742
23.013
21.22
19.365
17.45
15.479
13.459
11.398
9.304
7.187
5.058
2.927
0.806
-1.292
-3.353
-5.364
-7.314
-9.191
-10.983
-12.678
-14.268
-15.745
-17.105
-18.344
-19.459
-20.447
-21.304
-22.032
-22.632
-23.1
-23.433
-23.629
-23.691
-23.622
-23.433
-23.13
-22.723
-22.228
-21.66
-21.036
-20.374
-19.682
-18.964
-18.232
-17.497
-16.78
-16.11
-15.508
-14.986
-14.561
-14.248
-14.048
-13.953
-13.934
-13.94
-13.94
-13.911
-13.838
-13.723
-13.55
-13.299
-12.962
-12.521
-11.973
-11.324
-10.562
-9.683
-8.746
-7.843
-7.094
-6.66
-6.644
-7.099
-8.124
-9.801
-12.23
-15.515
-19.717
-24.83
-30.894
-38.05
-46.271
-55.36
-64.865
-73.993
-82.02
-88.438
-92.633
-93.851
-91.873
-86.946
-79.879
-72.528
-66.463
-62.591
-62.278
-66.772
-75.962
-88.949
-103.472
-115.215
-120.579
-116.463
-98.342
-62.143
-5.136
71.597
161.582
257.448
352.125
446.525
548.429
654.65
757.043
835.481
854.139
797.336
661.613
452.606
203.864
-54.631
-296.289
-486.548
-609.499
-662.089
-647.669
-584.6
-492.574
-385.275
-278
-187.123
-124.212
-96.567
-101.415
-122.202
-142.864
-153.358
-151.415
-145.41
-142.196
-142.98
-145.698
-144.784
-137.604
-125.897
-112.452
-99.964
-89.742
-81.679
-75.676
-72.038
-70.797
-71.439
-73.02
-74.664
-75.855
-76.437
-76.45
-75.8
-74.381
-72.194
-69.316
-65.87
-61.954
-57.606
-52.814
-47.588
-41.973
-36.038
-29.888
-23.612
-17.294
-10.991
-4.73
1.467
7.587
13.621
19.565
25.425
31.22
36.965
42.663
48.314
53.914
59.473
65.008
70.539
76.079
81.63
87.189
92.752
98.315
103.871
109.408
114.91
120.357
125.733
131.023
136.216
141.296
146.249
151.054
155.693
160.15
164.408
168.447
172.251
175.8
179.078
182.07
184.764
187.149
189.213
190.949
192.35
193.411
194.128
194.5
194.527
194.208
193.547
192.547
191.214
189.554
187.577
185.291
182.71
179.847
176.717
173.338
169.727
165.905
161.893
157.714
153.389
148.942
144.397
139.778
135.109
130.413
125.714
121.032
116.388
111.802
107.292
102.875
98.564
94.374
90.315
86.397
82.629
79.019
75.571
72.29
69.18
66.241
63.475
60.88
58.455
56.196
54.096
52.15
50.348
48.682
47.141
45.712
44.384
43.143
41.977
40.872
39.816
38.797
37.803
36.823
35.847
34.866
33.872
32.858
31.817
30.745
29.64
28.498
27.319
26.104
24.852
23.567
22.251
20.907
19.539
18.151
16.746
15.329
13.907
12.485
11.071
9.672
8.297
6.955
5.655
4.407
3.22
2.101
1.056
0.091
-0.794
-1.597
-2.318
-2.956
-3.513
-3.988
-4.382
-4.695
-4.925
-5.071
-5.136
-5.124
-5.044
-4.907
-4.722
-4.496
-4.237
-3.949
-3.641
-3.315
-2.969
-2.605
-2.226
-1.851
-1.515
-1.249
-1.071
-0.995
-1.021
-1.142
-1.354
-1.633
-1.936
-2.221
-2.446
-2.588
-2.651
-2.631
-2.528
-2.317
-1.938
-1.358
-0.578
0.386
1.48
2.646
3.83
4.934
5.819
6.327
6.29
5.57
4.057
1.655
-1.662
-6.01
-11.591
-18.382
-26.195
-34.607
-42.896
-50.49
-57.002
-61.841
-64.441
-64.675
-62.74
-59.682
-57.239
-56.648
-58.975
-65.202
-75.383
-88.894
-104.427
-118.794
-128.019
-128.94
-117.66
-90.476
-46.244
15.52
92.268
176.085
261.609
345.277
424.189
500.432
567.076
608.463
610.022
555.775
447.289
304.193
145.818
-6.091
-140.72
-260.735
-364.088
-448.084
-510.184
-544.936
-552.044
-535.636
-499.467
-448.001
-387.299
-323.47
-261.232
-204.338
-155.343
-114.881
-83.698
-63.027
-51.986
-48.176
-49.665
-54.166
-59.298
-64.18
-67.881
-68.82
-66.763
-62.333
-55.996
-48.941
-42.61
-37.368
-33.438
-31.332
-30.923
-31.958
-34.291
-37.25
-40.062
-42.393
-43.989
-44.63
-44.308
-42.957
-40.498
-37.074
-32.883
-28.114
-22.998
-17.683
-12.266
-6.844
-1.481
3.776
8.891
13.861
18.697
23.393
27.924
32.253
36.348
40.203
43.837
47.293
50.638
53.927
57.214
60.543
63.938
67.415
70.982
74.627
78.325
82.058
85.809
89.573
93.348
97.128
100.899
104.646
108.349
111.987
115.539
118.982
122.295
125.458
128.454
131.272
133.904
136.342
138.577
140.601
142.401
143.967
145.29
146.359
147.164
147.695
147.946
147.912
147.591
146.983
146.088
144.909
143.451
141.718
139.719
137.462
134.956
132.212
129.241
126.055
122.667
119.093
115.345
111.44
107.393
103.221
98.938
94.56
90.103
85.581
81.009
76.403
71.775
67.141
62.515
57.911
53.343
48.823
44.364
39.975
35.667
31.447
27.323
23.3
19.383
15.575
11.879
8.296
4.826
1.468
-1.779
-4.919
-7.954
-10.888
-13.725
-16.467
-19.12
-21.685
-24.166
-26.564
-28.883
-31.125
-33.292
-35.389
-37.416
-39.376
-41.271
-43.103
-44.874
-46.585
-48.236
-49.826
-51.356
-52.826
-54.236
-55.586
-56.877
-58.108
-59.277
-60.385
-61.431
-62.411
-63.323
-64.164
-64.93
-65.622
-66.237
-66.776
-67.24
-67.632
-67.961
-68.233
-68.454
-68.631
-68.769
-68.874
-68.951
-69.004
-69.033
-69.039
-69.026
-69.004
-68.986
-68.982
-68.998
-69.04
-69.109
-69.213
-69.356
-69.535
-69.742
-69.971
-70.226
-70.533
-70.928
-71.438
-72.072
-72.83
-73.707
-74.702
-75.811
-77.004
-78.227
-79.424
-80.554
-81.61
-82.61
-83.561
-84.442
-85.198
-85.768
-86.121
-86.272
-86.247
-86.057
-85.714
-85.241
-84.708
-84.279
-84.131
-84.399
-85.194
-86.569
-88.522
-91.178
-94.738
-99.2
-104.403
-109.931
-115.078
-119.324
-122.348
-123.641
-122.764
-119.72
-114.814
-109.194
-104.768
-103.031
-105.274
-112.695
-125.452
-142.678
-162.714
-182.269
-197.31
-203.995
-197.826
-174.706
-132.117
-71.415
1.908
81.915
162.181
242.778
329.368
418.539
503.092
565.707
576.368
520.998
396.135
211.051
-0.104
-205.735
-377.334
-491.838
-549.028
-559.433
-541.295
-513.387
-483.657
-453.011
-416.757
-373.179
-326.669
-282.748
-247.606
-224.024
-210.609
-205.097
-204.823
-206.819
-208.676
-208.995
-207.048
-202.921
-197.333
-190.958
-184.407
-178.51
-174.065
-171.389
-170.491
-171.083
-172.619
-174.687
-176.969
-179.111
-180.846
-182.009
-182.495
-182.3
-181.482
-180.068
-178.079
-175.548
-172.497
-168.976
-165.053
-160.788
-156.255
-151.531
-146.689
-141.805
-136.925
-132.072
-127.256
-122.474
-117.715
-112.969
-108.218
-103.44
-98.622
-93.752
-88.817
-83.81
-78.718
-73.525
-68.219
-62.784
-57.21
-51.498
-45.649
-39.668
-33.564
-27.348
-21.035
-14.645
-8.194
-1.697
4.829
11.371
17.91
24.426
30.9
37.31
43.634
49.847
55.923
61.836
67.559
73.068
78.339
83.351
88.081
92.51
96.619
100.391
103.813
106.869
109.547
111.837
113.73
115.22
116.303
116.979
117.246
117.109
116.572
115.642
114.33
112.644
110.599
108.209
105.49
102.459
99.138
95.547
91.71
87.652
83.399
78.978
74.416
69.743
64.984
60.168
55.32
50.467
45.634
40.843
36.118
31.479
26.946
22.536
18.267
14.152
10.204
6.432
2.846
-0.549
-3.746
-6.744
-9.542
-12.138
-14.535
-16.735
-18.742
-20.561
-22.2
-23.664
-24.962
-26.105
-27.103
-27.965
-28.706
-29.337
-29.869
-30.317
-30.69
-30.999
-31.257
-31.474
-31.657
-31.815
-31.956
-32.086
-32.211
-32.338
-32.47
-32.611
-32.763
-32.929
-33.11
-33.305
-33.514
-33.737
-33.973
-34.221
-34.481
-34.752
-35.036
-35.335
-35.652
-35.989
-36.348
-36.733
-37.143
-37.579
-38.038
-38.518
-39.016
-39.531
-40.059
-40.601
-41.162
-41.749
-42.368
-43.024
-43.721
-44.458
-45.238
-46.055
-46.905
-47.785
-48.695
-49.652
-50.671
-51.765
-52.946
-54.216
-55.564
-56.967
-58.392
-59.792
-61.116
-62.317
-63.354
-64.211
-64.882
-65.366
-65.657
-65.728
-65.55
-65.112
-64.422
-63.49
-62.357
-61.095
-59.8
-58.627
-57.733
-57.231
-57.233
-57.829
-59.097
-61.114
-63.944
-67.605
-72.131
-77.594
-83.894
-90.77
-97.775
-104.159
-109.152
-112.146
-112.612
-110.096
-104.678
-96.941
-87.931
-79.465
-73.432
-71.121
-73.145
-79.463
-88.845
-99.074
-107.399
-109.595
-100.711
-76.716
-34.986
23.391
93.458
170.48
250.875
335.643
428.179
523.566
608.372
659.463
652.108
578.374
448.886
289.178
127.465
-19.734
-148.643
-263.197
-364.697
-449.032
-510.429
-543.443
-547.173
-524.798
-480.524
-419.813
-349.339
-275.659
-204.283
-139.731
-85.682
-44.751
-18.228
-6.003
-6.091
-15.18
-30.289
-48.499
-66.421
-81.327
-91.515
-96.045
-95.249
-90.42
-82.629
-73.145
-63.72
-55.529
-49.24
-45.245
-43.302
-42.894
-43.658
-45.023
-46.256
-46.975
-46.952
-46.053
-44.351
-41.866
-38.603
-34.718
-30.431
-25.894
-21.213
-16.445
-11.601
-6.738
-1.911
2.86
7.583
12.293
17.007
21.716
26.389
30.984
35.482
39.901
44.268
48.607
52.934
57.262
61.612
66.014
70.486
75.027
79.618
84.233
88.854
93.468
98.064
102.633
107.162
111.633
116.027
120.327
124.516
128.574
132.479
136.206
139.73
143.034
146.105
148.931
151.499
153.796
155.811
157.537
158.966
160.092
160.908
161.407
161.586
161.443
160.979
160.195
159.096
157.685
155.97
153.959
151.662
149.092
146.26
143.181
139.87
136.343
132.619
128.716
124.652
120.449
116.126
111.704
107.206
102.652
98.061
93.456
88.853
84.273
79.731
75.243
70.825
66.489
62.248
58.115
54.1
50.212
46.459
42.847
39.382
36.066
32.903
29.892
27.035
24.328
21.77
19.358
17.087
14.954
12.953
11.077
9.32
7.675
6.133
4.688
3.331
2.054
0.849
-0.289
-1.366
-2.388
-3.359
-4.283
-5.163
-6
-6.796
-7.553
-8.272
-8.954
-9.599
-10.206
-10.774
-11.302
-11.788
-12.23
-12.628
-12.978
-13.278
-13.528
-13.729
-13.884
-13.995
-14.062
-14.091
-14.083
-14.042
-13.972
-13.873
-13.744
-13.586
-13.403
-13.197
-12.976
-12.744
-12.512
-12.292
-12.096
-11.935
-11.819
-11.751
-11.731
-11.764
-11.852
-12.003
-12.233
-12.554
-12.977
-13.516
-14.179
-14.96
-15.849
-16.814
-17.811
-18.81
-19.774
-20.68
-21.515
-22.258
-22.911
-23.476
-23.937
-24.287
-24.515
-24.611
-24.585
-24.49
-24.396
-24.405
-24.648
-25.223
-26.218
-27.733
-29.872
-32.709
-36.258
-40.532
-45.49
-51.192
-57.826
-65.351
-73.52
-81.953
-90.047
-97.18
-102.885
-106.411
-106.816
-103.911
-97.989
-89.807
-80.843
-72.758
-67.34
-66.439
-71.779
-81.904
-92.454
-101.676
-107.946
-111.947
-118.614
-121.088
-107.1
-69.49
3.427
108.052
229.483
365.397
505.762
637.985
752.422
820.95
817.734
737.156
582.35
372.477
141.011
-88.788
-294.21
-449.328
-547.186
-587.424
-579.858
-550.905
-515.34
-478.574
-440.812
-393.039
-334.362
-271.078
-209.447
-157.36
-118.455
-92.477
-78.92
-75.924
-80.919
-91.414
-104.569
-117.641
-128.773
-136.54
-140.049
-139.231
-134.656
-127.325
-118.573
-109.905
-102.312
-96.404
-92.494
-90.441
-89.919
-90.526
-91.695
-92.755
-93.313
-93.18
-92.283
-90.742
-88.657
-86.084
-83.138
-79.948
-76.584
-73.098
-69.522
-65.856
-62.143
-58.429
-54.734
-51.081
-47.47
-43.881
-40.298
-36.697
-33.045
-29.32
-25.509
-21.603
-17.604
-13.509
-9.313
-5.011
-0.593
3.947
8.611
13.403
18.319
23.349
28.481
33.693
38.963
44.27
49.595
54.921
60.229
65.501
70.716
75.853
80.893
85.811
90.585
95.188
99.594
103.78
107.723
111.402
114.797
117.892
120.669
123.115
125.219
126.972
128.364
129.392
130.05
130.338
130.255
129.806
128.994
127.827
126.314
124.466
122.297
119.822
117.058
114.022
110.732
107.211
103.477
99.554
95.465
91.232
86.881
82.437
77.926
73.374
68.807
64.249
59.726
55.262
50.878
46.595
42.435
38.414
34.552
30.864
27.364
24.065
20.979
18.115
15.48
13.08
10.917
8.994
7.312
5.868
4.662
3.691
2.951
2.439
2.15
2.078
2.218
2.561
3.101
3.828
4.733
5.808
7.042
8.427
9.954
11.613
13.396
15.295
17.299
19.401
21.59
23.858
26.195
28.592
31.042
33.537
36.072
38.641
41.238
43.862
46.508
49.171
51.847
54.527
57.201
59.86
62.493
65.091
67.643
70.139
72.572
74.938
77.236
79.461
81.609
83.674
85.645
87.514
89.272
90.91
92.42
93.801
95.048
96.164
97.159
98.034
98.792
99.422
99.892
100.177
100.26
100.126
99.778
99.224
98.476
97.564
96.542
95.453
94.347
93.261
92.2
91.183
90.227
89.355
88.634
88.124
87.847
87.805
87.96
88.245
88.599
88.94
89.143
89.06
88.508
87.316
85.359
82.514
78.734
73.899
67.728
60.15
51.341
41.723
32.117
23.279
15.618
9.766
6.538
6.14
8.356
12.134
15.229
15.823
12.81
4.905
-8.673
-27.347
-49.673
-72.487
-90.712
-99.623
-95.014
-72.353
-27.695
38.816
123.211
220.334
322.458
427.973
542.545
663.129
780.034
873.842
913.537
882.628
781.764
621.993
425.864
213.317
-1.38
-199.384
-357.814
-460.866
-502.508
-492.46
-455.473
-409.3
-362.576
-316.289
-263.938
-206.215
-148.183
-94.61
-51.898
-22.431
-5.32
0.894
0.371
-1.868
-3.222
-2.293
1.55
8.282
18.389
31.923
47.305
62.025
74.42
83.776
90.095
93.803
94.914
93.509
90.252
86.205
82.263
78.909
76.268
74.235
72.875
72.362
72.805
74.251
76.659
79.983
84.194
89.265
95.097
101.494
108.251
115.159
122.07
128.912
135.643
142.247
148.718
155.051
161.226
167.207
172.966
178.476
183.733
188.752
193.569
198.25
202.866
207.487
212.165
216.924
221.772
226.704
231.701
236.737
241.79
246.839
251.872
256.881
261.853
266.772
271.617
276.36
280.971
285.421
289.677
293.711
297.498
301.014
304.242
307.167
309.776
312.054
313.987
315.559
316.756
317.563
317.968
317.958
317.523
316.654
315.347
313.6
311.413
308.789
305.732
302.251
298.355
294.056
289.368
284.307
278.891
273.137
267.068
260.704
254.069
247.189
240.088
232.793
225.332
217.731
210.019
202.223
194.368
186.481
178.586
170.708
162.873
155.102
147.42
139.848
132.406
125.114
117.989
111.046
104.298
97.756
91.428
85.322
79.443
73.793
68.374
63.188
58.232
53.505
49.003
44.721
40.651
36.787
33.12
29.641
26.34
23.209
20.237
17.414
14.732
12.182
9.755
7.443
5.236
3.124
1.098
-0.851
-2.73
-4.55
-6.317
-8.039
-9.719
-11.364
-12.975
-14.557
-16.112
-17.643
-19.154
-20.647
-22.13
-23.607
-25.082
-26.559
-28.041
-29.527
-31.019
-32.513
-34.006
-35.493
-36.971
-38.44
-39.905
-41.374
-42.849
-44.333
-45.827
-47.329
-48.84
-50.356
-51.862
-53.351
-54.818
-56.268
-57.733
-59.234
-60.785
-62.391
-64.047
-65.739
-67.459
-69.184
-70.863
-72.455
-73.917
-75.228
-76.41
-77.476
-78.432
-79.26
-79.901
-80.322
-80.528
-80.54
-80.389
-80.118
-79.765
-79.406
-79.181
-79.232
-79.704
-80.705
-82.296
-84.536
-87.453
-91.176
-95.903
-101.628
-108.161
-115.092
-121.765
-127.619
-132.222
-134.912
-135.074
-132.632
-127.927
-122.172
-117.27
-114.719
-115.986
-122.545
-134.845
-152.327
-173.366
-194.476
-211.513
-220.595
-216.846
-195.564
-153.998
-92.845
-16.926
67.278
154.778
247.024
346.528
447.589
536.399
587.55
577.825
503.421
375.579
218.225
51.83
-117.421
-286.911
-451.577
-593.239
-687.84
-722.962
-701.215
-644.088
-576.992
-513.69
-458.757
-407.743
-355.839
-305.068
-259.927
-225.433
-204.521
-196.346
-197.555
-204.203
-213.245
-221.969
-228.808
-232.985
-233.29
-229.332
-221.883
-212.051
-201.405
-191.721
-183.761
-177.766
-174.105
-172.686
-173.213
-175.347
-178.348
-181.362
-183.954
-185.929
-187.178
-187.748
-187.619
-186.675
-184.894
-182.352
-179.129
-175.329
-171.082
-166.459
-161.536
-156.443
-151.286
-146.146
-141.079
-136.082
-131.112
-126.156
-121.214
-116.307
-111.487
-106.779
-102.172
-97.648
-93.16
-88.668
-84.143
-79.544
-74.824
-69.953
-64.916
-59.722
-54.405
-48.992
-43.5
-37.944
-32.329
-26.665
-20.972
-15.267
-9.572
-3.908
1.701
7.228
12.64
17.907
23.001
27.9
32.588
37.048
41.261
45.21
48.877
52.246
55.303
58.033
60.418
62.445
64.102
65.381
66.276
66.783
66.9
66.626
65.966
64.922
63.503
61.717
59.572
57.081
54.256
51.112
47.665
43.933
39.934
35.689
31.219
26.547
21.696
16.688
11.545
6.292
0.95
-4.459
-9.915
-15.396
-20.882
-26.354
-31.79
-37.173
-42.486
-47.712
-52.837
-57.848
-62.733
-67.484
-72.093
-76.552
-80.856
-85.001
-88.982
-92.796
-96.442
-99.918
-103.226
-106.366
-109.341
-112.154
-114.81
-117.315
-119.672
-121.887
-123.964
-125.909
-127.727
-129.421
-130.997
-132.457
-133.808
-135.054
-136.201
-137.253
-138.215
-139.091
-139.885
-140.6
-141.239
-141.803
-142.296
-142.717
-143.07
-143.356
-143.581
-143.748
-143.865
-143.939
-143.976
-143.982
-143.964
-143.927
-143.875
-143.809
-143.73
-143.639
-143.537
-143.429
-143.319
-143.217
-143.131
-143.071
-143.043
-143.05
-143.096
-143.183
-143.305
-143.459
-143.644
-143.866
-144.145
-144.504
-144.955
-145.507
-146.16
-146.9
-147.707
-148.556
-149.401
-150.197
-150.907
-151.493
-151.948
-152.275
-152.473
-152.538
-152.434
-152.122
-151.596
-150.866
-149.963
-148.95
-147.883
-146.845
-145.964
-145.355
-145.143
-145.462
-146.391
-147.997
-150.342
-153.425
-157.345
-162.262
-168.097
-174.61
-181.364
-187.649
-192.914
-196.77
-198.58
-197.78
-194.332
-188.574
-181.641
-175.329
-170.924
-169.488
-172.081
-178.943
-189.457
-202.146
-213.976
-221.237
-220.609
-208.324
-180.913
-136.593
-76.688
-5.971
69.889
146.859
226.48
312.11
400.324
479.253
528.26
527.489
469.658
362.03
221.235
62.613
-101.333
-260.074
-400.917
-505.995
-564.31
-578.341
-562.652
-536.265
-511.281
-488.676
-461.901
-427.509
-387.782
-347.573
-312.92
-286.044
-265.617
-250.382
-238.714
-228.615
-218.522
-207.336
-194.527
-180.502
-166.121
-152.032
-138.841
-127.36
-118.363
-112.286
-109.168
-108.645
-110.111
-112.971
-116.759
-121.024
-125.309
-129.293
-132.768
-135.612
-137.79
-139.25
-139.867
-139.506
-138.091
-135.582
-132.026
-127.533
-122.239
-116.353
-110.075
-103.58
-97.034
-90.539
-84.15
-77.904
-71.811
-65.872
-60.112
-54.572
-49.278
-44.253
-39.502
-34.996
-30.695
-26.534
-22.442
-18.359
-14.236
-10.045
-5.776
-1.43
2.98
7.428
11.898
16.378
20.856
25.329
29.789
34.223
38.614
42.939
47.174
51.294
55.273
59.089
62.722
66.152
69.368
72.358
75.112
77.621
79.873
81.854
83.553
84.959
86.06
86.846
87.309
87.442
87.241
86.705
85.832
84.624
83.083
81.212
79.017
76.502
73.677
70.549
67.13
63.429
59.462
55.242
50.786
46.111
41.236
36.18
30.964
25.607
20.132
14.559
8.909
3.203
-2.538
-8.293
-14.043
-19.766
-25.445
-31.059
-36.591
-42.024
-47.342
-52.53
-57.574
-62.46
-67.178
-71.717
-76.067
-80.219
-84.166
-87.903
-91.424
-94.725
-97.805
-100.66
-103.292
-105.701
-107.889
-109.86
-111.617
-113.165
-114.509
-115.655
-116.61
-117.379
-117.968
-118.383
-118.63
-118.716
-118.646
-118.426
-118.061
-117.556
-116.916
-116.147
-115.257
-114.248
-113.128
-111.899
-110.568
-109.14
-107.62
-106.013
-104.323
-102.553
-100.712
-98.807
-96.846
-94.834
-92.779
-90.688
-88.568
-86.427
-84.268
-82.091
-79.899
-77.695
-75.482
-73.269
-71.061
-68.866
-66.694
-64.557
-62.468
-60.435
-58.46
-56.541
-54.678
-52.876
-51.141
-49.492
-47.938
-46.49
-45.161
-43.965
-42.904
-41.967
-41.124
-40.332
-39.559
-38.783
-37.987
-37.166
-36.302
-35.379
-34.395
-33.343
-32.219
-31.02
-29.723
-28.313
-26.836
-25.388
-24.079
-23.052
-22.396
-22.143
-22.382
-23.227
-24.763
-27.073
-30.196
-34.084
-38.818
-44.639
-51.551
-59.348
-67.598
-75.511
-82.353
-87.604
-90.531
-90.324
-86.886
-80.662
-72.712
-64.84
-59.026
-57.289
-61.383
-72.696
-89.253
-105.882
-120.033
-129.443
-134.431
-139.943
-139.077
-119.554
-73.465
12.151
132.738
271.745
422.674
567.771
692.839
789.355
834.279
816.668
737.637
601.782
427.055
231.755
29.647
-159.557
-312.871
-414.883
-458.342
-452.114
-421.443
-385.393
-353.382
-325.243
-291.058
-247.544
-199.222
-152.265
-113.463
-84.641
-63.95
-49.857
-40.849
-36.038
-33.798
-31.561
-28.107
-23.354
-17.566
-11.244
-4.314
3.808
12.572
20.615
27.254
32.294
35.908
38.668
40.701
41.689
41.871
41.889
42.187
43.139
44.852
47.114
49.893
53.334
57.448
62.19
67.494
73.167
79.098
85.272
91.631
98.121
104.677
111.196
117.619
123.944
130.175
136.332
142.437
148.476
154.454
160.377
166.238
172.07
177.894
183.717
189.555
195.418
201.314
207.267
213.289
219.368
225.49
231.637
237.786
243.925
250.039
256.108
262.117
268.047
273.877
279.591
285.171
290.594
295.841
300.886
305.705
310.278
314.585
318.608
322.329
325.732
328.798
331.516
333.873
335.857
337.457
338.666
339.477
339.884
339.888
339.488
338.687
337.49
335.905
333.94
331.607
328.917
325.885
322.528
318.862
314.905
310.679
306.205
301.506
296.605
291.527
286.296
280.94
275.483
269.954
264.376
258.777
253.182
247.615
242.099
236.658
231.313
226.083
220.988
216.044
211.267
206.668
202.259
198.049
194.045
190.253
186.675
183.314
180.168
177.237
174.518
172.006
169.695
167.577
165.646
163.892
162.305
160.876
159.595
158.449
157.426
156.516
155.707
154.986
154.343
153.764
153.24
152.761
152.317
151.901
151.505
151.123
150.749
150.381
150.016
149.653
149.289
148.926
148.563
148.204
147.851
147.507
147.176
146.86
146.565
146.296
146.056
145.848
145.672
145.527
145.414
145.334
145.286
145.268
145.279
145.32
145.395
145.506
145.655
145.839
146.052
146.289
146.544
146.809
147.073
147.325
147.555
147.76
147.943
148.104
148.238
148.329
148.352
148.291
148.137
147.876
147.498
147.001
146.394
145.708
144.992
144.284
143.611
142.982
142.392
141.853
141.379
140.991
140.719
140.566
140.53
140.629
140.871
141.212
141.569
141.806
141.749
141.287
140.359
138.891
136.803
133.993
130.354
125.792
120.283
113.774
106.088
97.217
87.361
76.976
66.896
57.956
50.715
45.836
44.134
45.751
50.329
56.894
63.308
67.817
69.457
66.756
58.41
44.725
26.886
7.621
-8.067
-16.193
-13.446
5.058
43.637
104.952
187.66
284.629
387.383
488.144
587.507
693.183
802.756
909.256
992.532
1014.833
958.328
816.112
593.181
329.777
60.919
-179.975
-353.253
-453.018
-485.954
-467.834
-433.173
-398.388
-366.156
-334.585
-291.752
-234.968
-170.764
-105.785
-48.38
-3.385
28.539
47.801
56.084
55.425
48.033
36.146
21.967
8.4
-2.005
-8.002
-9.128
-5.823
0.682
9.365
19.045
27.929
34.707
38.838
40.16
39.087
36.318
32.301
27.597
22.998
18.974
15.79
13.613
12.382
12.067
12.727
14.331
16.781
20.006
23.874
28.229
32.972
37.964
43.084
48.264
53.44
58.587
63.7
68.774
73.79
78.72
83.527
88.172
92.64
96.927
101.059
105.09
109.072
113.056
117.081
121.164
125.316
129.535
133.801
138.082
142.349
146.58
150.76
154.878
158.921
162.868
166.697
170.379
173.888
177.192
180.263
183.072
185.594
187.809
189.699
191.255
192.466
193.321
193.807
193.913
193.627
192.939
191.84
190.319
188.369
185.987
183.17
179.922
176.246
172.149
167.639
162.728
157.429
151.76
145.736
139.379
132.709
125.75
118.528
111.067
103.397
95.546
87.542
79.415
71.196
62.914
54.597
46.275
37.974
29.723
21.549
13.476
5.53
-2.265
-9.886
-17.311
-24.519
-31.493
-38.217
-44.676
-50.858
-56.754
-62.355
-67.656
-72.654
-77.348
-81.74
-85.832
-89.631
-93.144
-96.382
-99.356
-102.078
-104.561
-106.82
-108.87
-110.724
-112.398
-113.907
-115.266
-116.49
-117.596
-118.597
-119.509
-120.344
-121.115
-121.835
-122.515
-123.164
-123.791
-124.402
-125.005
-125.608
-126.214
-126.831
-127.46
-128.104
-128.766
-129.445
-130.139
-130.847
-131.561
-132.279
-132.993
-133.699
-134.39
-135.061
-135.709
-136.33
-136.924
-137.488
-138.021
-138.52
-138.979
-139.398
-139.772
-140.094
-140.36
-140.564
-140.704
-140.786
-140.817
-140.803
-140.75
-140.661
-140.538
-140.384
-140.202
-139.983
-139.722
-139.416
-139.073
-138.723
-138.395
-138.107
-137.873
-137.696
-137.563
-137.465
-137.377
-137.249
-137.04
-136.704
-136.215
-135.589
-134.841
-133.981
-133.004
-131.866
-130.53
-129.005
-127.302
-125.435
-123.468
-121.456
-119.503
-117.792
-116.456
-115.618
-115.397
-115.844
-117.019
-118.991
-121.793
-125.486
-130.187
-135.829
-142.195
-148.914
-155.289
-160.569
-164.095
-165.294
-163.744
-159.449
-152.956
-145.307
-138.249
-133.934
-134.119
-139.523
-149.981
-164.418
-180.665
-195.679
-205.229
-203.714
-185.333
-149.002
-98.228
-36.067
33.233
112.67
212.897
331.819
457.147
565.061
619.126
600.481
510.85
363.254
182.535
-9.967
-200.732
-372.276
-503.421
-580.956
-601.248
-576.567
-534.009
-492.4
-459.862
-435.059
-408.013
-376.126
-342.656
-311.43
-287.765
-272.547
-263.231
-257.889
-253.915
-248.932
-242.199
-233.405
-222.686
-210.925
-198.912
-187.17
-176.469
-167.62
-160.989
-156.719
-154.618
-154.112
-154.731
-156.085
-157.772
-159.44
-160.82
-161.699
-161.972
-161.628
-160.66
-159.081
-156.876
-154
-150.436
-146.152
-141.197
-135.705
-129.795
-123.587
-117.197
-110.713
-104.223
-97.813
-91.521
-85.345
-79.273
-73.279
-67.356
-61.521
-55.784
-50.169
-44.669
-39.244
-33.864
-28.506
-23.142
-17.759
-12.335
-6.846
-1.289
4.314
9.94
15.562
21.161
26.723
32.236
37.684
43.049
48.31
53.446
58.439
63.268
67.911
72.344
76.539
80.473
84.131
87.496
90.553
93.285
95.676
97.712
99.383
100.679
101.588
102.103
102.216
101.923
101.222
100.117
98.607
96.7
94.403
91.724
88.677
85.275
81.533
77.468
73.101
68.45
63.538
58.387
53.022
47.467
41.748
35.891
29.922
23.87
17.762
11.623
5.482
-0.637
-6.708
-12.706
-18.608
-24.393
-30.039
-35.527
-40.839
-45.959
-50.873
-55.569
-60.038
-64.271
-68.263
-72.007
-75.503
-78.749
-81.747
-84.499
-87.011
-89.287
-91.335
-93.165
-94.787
-96.211
-97.45
-98.515
-99.419
-100.176
-100.796
-101.294
-101.681
-101.97
-102.173
-102.304
-102.376
-102.398
-102.382
-102.337
-102.273
-102.198
-102.118
-102.037
-101.96
-101.89
-101.831
-101.786
-101.758
-101.749
-101.759
-101.788
-101.837
-101.905
-101.991
-102.089
-102.195
-102.307
-102.421
-102.536
-102.652
-102.767
-102.883
-103.006
-103.14
-103.289
-103.454
-103.635
-103.833
-104.046
-104.276
-104.517
-104.768
-105.03
-105.305
-105.599
-105.916
-106.255
-106.614
-106.99
-107.38
-107.785
-108.202
-108.619
-109.038
-109.464
-109.92
-110.441
-111.046
-111.74
-112.531
-113.423
-114.417
-115.517
-116.693
-117.888
-119.055
-120.144
-121.137
-122.044
-122.839
-123.478
-123.901
-124.044
-123.902
-123.502
-122.832
-121.854
-120.522
-118.824
-116.887
-114.919
-113.112
-111.664
-110.664
-110.223
-110.631
-112.005
-114.278
-117.194
-120.07
-122.26
-123.5
-123.378
-121.359
-117.58
-112.44
-106.881
-103.041
-102.628
-106.655
-116.558
-133.271
-156.106
-183.541
-212.531
-237.876
-255.07
-260.297
-248.8
-216.892
-163.341
-88.586
3.959
107.624
215.738
321.153
414.314
485.83
528.161
537.013
513.314
460.599
381.091
272.806
133.52
-32.048
-208.734
-370.629
-491.437
-555.143
-564.561
-536.223
-488.049
-439.645
-397.953
-362.665
-337.994
-317.951
-299.811
-284.872
-268.155
-252.626
-241.219
-232.056
-225.356
-218.553
-209.095
-197.4
-184.018
-169.914
-156.133
-143.267
-132.043
-122.987
-116.293
-111.901
-109.37
-108.26
-108.223
-108.875
-109.872
-110.893
-111.66
-112.01
-111.889
-111.255
-110.078
-108.35
-106.017
-103.048
-99.433
-95.147
-90.24
-84.838
-79.054
-73.002
-66.792
-60.512
-54.247
-48.079
-42.04
-36.126
-30.321
-24.602
-18.968
-13.429
-7.991
-2.67
2.543
7.687
12.793
17.885
22.994
28.137
33.335
38.614
43.977
49.404
54.875
60.367
65.86
71.343
76.804
82.229
87.602
92.901
98.107
103.201
108.164
112.973
117.604
122.03
126.229
130.185
133.881
137.303
140.436
143.264
145.773
147.956
149.802
151.303
152.45
153.239
153.665
153.729
153.432
152.778
151.771
150.418
148.729
146.712
144.381
141.747
138.827
135.635
132.189
128.506
124.606
120.509
116.237
111.81
107.252
102.585
97.834
93.02
88.168
83.299
78.437
73.6
68.811
64.087
59.447
54.906
50.48
46.182
42.023
38.014
34.162
30.476
26.96
23.617
20.451
17.463
14.653
12.02
9.562
7.277
5.159
3.204
1.406
-0.243
-1.751
-3.125
-4.375
-5.511
-6.543
-7.482
-8.337
-9.119
-9.838
-10.505
-11.13
-11.723
-12.292
-12.846
-13.393
-13.94
-14.491
-15.052
-15.626
-16.216
-16.824
-17.451
-18.097
-18.762
-19.446
-20.149
-20.869
-21.605
-22.356
-23.12
-23.894
-24.676
-25.462
-26.251
-27.038
-27.819
-28.592
-29.354
-30.104
-30.844
-31.572
-32.291
-32.999
-33.698
-34.389
-35.071
-35.74
-36.391
-37.022
-37.629
-38.215
-38.782
-39.335
-39.877
-40.413
-40.947
-41.481
-42.015
-42.549
-43.073
-43.587
-44.093
-44.598
-45.13
-45.709
-46.348
-47.059
-47.837
-48.672
-49.555
-50.461
-51.346
-52.179
-52.924
-53.551
-54.063
-54.444
-54.681
-54.762
-54.637
-54.258
-53.617
-52.724
-51.622
-50.388
-49.087
-47.793
-46.622
-45.698
-45.184
-45.241
-45.99
-47.562
-50.015
-53.447
-58.11
-64.054
-71.098
-78.869
-86.599
-93.579
-99.47
-103.742
-105.672
-105.207
-102.622
-98.752
-95.678
-94.989
-97.427
-104.191
-116.058
-132.278
-151.632
-171.597
-187.237
-194.555
-190.758
-171.651
-133.783
-76.053
1.99
96.036
195.784
293.091
382.968
465.231
544.05
618.453
677.688
698.898
660.066
549.496
368.526
144.182
-90.027
-302.69
-461.223
-556.785
-593.743
-583.811
-552.444
-513.385
-471.365
-428.143
-377.631
-320.74
-263.48
-210.622
-168.416
-139.679
-123.965
-119.978
-124.191
-132.252
-140.81
-147.703
-152.025
-153.211
-150.307
-143.043
-132.181
-119.441
-106.987
-96.042
-86.851
-79.509
-74.223
-71.056
-69.897
-70.138
-70.696
-70.927
-70.626
-69.724
-68.303
-66.363
-63.801
-60.653
-57.107
-53.291
-49.289
-45.13
-40.749
-36.15
-31.394
-26.544
-21.692
-16.887
-12.132
-7.426
-2.762
1.875
6.487
11.088
15.716
20.397
25.149
29.986
34.902
39.904
45.009
50.235
55.603
61.122
66.791
72.602
78.549
84.619
90.796
97.06
103.384
109.745
116.12
122.488
128.825
135.109
141.311
147.405
153.361
159.152
164.748
170.12
175.238
180.075
184.605
188.803
192.647
196.113
199.182
201.835
204.056
205.832
207.149
207.997
208.368
208.26
207.668
206.595
205.044
203.02
200.532
197.593
194.217
190.419
186.219
181.638
176.698
171.425
165.844
159.985
153.874
147.543
141.022
134.342
127.535
120.632
113.662
106.657
99.647
92.66
85.725
78.868
72.116
65.491
59.018
52.718
46.61
40.71
35.036
29.6
24.415
19.489
14.83
10.444
6.335
2.505
-1.047
-4.323
-7.328
-10.066
-12.545
-14.774
-16.762
-18.52
-20.058
-21.388
-22.521
-23.467
-24.239
-24.849
-25.307
-25.626
-25.816
-25.89
-25.858
-25.73
-25.516
-25.225
-24.865
-24.442
-23.963
-23.435
-22.862
-22.248
-21.597
-20.912
-20.197
-19.453
-18.681
-17.882
-17.055
-16.199
-15.311
-14.392
-13.438
-12.448
-11.42
-10.354
-9.253
-8.121
-6.96
-5.776
-4.571
-3.352
-2.123
-0.889
0.35
1.593
2.84
4.086
5.327
6.556
7.766
8.946
10.088
11.181
12.219
13.197
14.115
14.979
15.789
16.543
17.234
17.843
18.352
18.75
19.026
19.174
19.209
19.147
19.018
18.866
18.723
18.616
18.567
18.58
18.659
18.807
19.027
19.342
19.781
20.362
21.097
21.971
22.918
23.879
24.767
25.473
25.941
26.085
25.797
25.011
23.645
21.624
18.951
15.553
11.235
6.005
0.042
-6.278
-12.167
-16.92
-20.084
-21.023
-19.105
-14.314
-7.027
1.733
9.851
15.483
17.388
14.105
4.78
-9.883
-28.41
-48.097
-64.29
-72.604
-69.23
-49.842
-11.427
46.351
122.435
213.878
314.738
418.298
517.181
602.385
665.705
701.469
705.341
674.594
609.917
514.461
393.739
256.241
111.331
-32.449
-166.426
-281.654
-371.405
-431.73
-461.273
-461.791
-436.696
-390.005
-327.355
-256.365
-184.372
-117.35
-59.912
-14.615
17.045
34.34
38.272
31.755
18.414
1.852
-14.599
-28.717
-38.783
-43.575
-42.926
-37.579
-28.847
-18.371
-7.854
1.632
9.404
15.074
18.754
20.765
21.571
21.821
22.218
23.162
24.837
27.303
30.444
34.165
38.402
43.032
47.919
52.989
58.192
63.498
68.902
74.363
79.831
85.282
90.69
96.053
101.386
106.702
112.019
117.366
122.755
128.195
133.69
139.236
144.829
150.473
156.172
161.932
167.76
173.656
179.623
185.655
191.741
197.867
204.009
210.143
216.247
222.302
228.289
234.187
239.978
245.64
251.152
256.493
261.64
266.567
271.249
275.66
279.775
283.571
287.028
290.124
292.84
295.159
297.066
298.546
299.589
300.183
300.321
299.995
299.203
297.942
296.213
294.021
291.369
288.268
284.727
280.76
276.383
271.613
266.469
260.972
255.145
249.011
242.595
235.923
229.022
221.922
214.651
207.24
199.719
192.12
184.471
176.804
169.148
161.532
153.982
146.526
139.188
131.993
124.964
118.12
111.483
105.068
98.892
92.967
87.306
81.916
76.805
71.979
67.439
63.187
59.223
55.545
52.149
49.03
46.182
43.596
41.263
39.172
37.313
35.671
34.235
32.989
31.921
31.018
30.263
29.644
29.145
28.753
28.454
28.236
28.084
27.987
27.936
27.918
27.928
27.956
27.996
28.043
28.093
28.142
28.187
28.226
28.255
28.274
28.283
28.281
28.271
28.253
28.23
28.204
28.18
28.16
28.147
28.14
28.139
28.142
28.149
28.158
28.168
28.177
28.186
28.196
28.214
28.243
28.283
28.331
28.382
28.43
28.473
28.501
28.507
28.486
28.433
28.349
28.244
28.117
27.96
27.762
27.494
27.133
26.664
26.073
25.354
24.515
23.566
22.535
21.477
20.429
19.424
18.489
17.628
16.86
16.212
15.707
15.389
15.294
15.447
15.853
16.487
17.282
18.155
19.005
19.699
20.107
20.061
19.395
17.973
15.64
12.309
7.858
2.044
-5.181
-13.697
-23.178
-32.942
-42.33
-50.947
-58.167
-63.158
-65.718
-65.977
-64.697
-63.733
-64.445
-67.522
-74.121
-85.245
-100.628
-119.249
-138.463
-153.643
-161.26
-158.322
-140.746
-104.937
-48.204
28.807
119.98
217.718
315.524
413.198
516.296
623.044
724.695
801.663
824.842
779.789
665.007
490.48
282.526
63.648
-145.687
-321.154
-448.702
-521.771
-543.24
-531.516
-503.694
-468.847
-430.588
-384.65
-329.514
-270.614
-214.433
-167.755
-134.744
-115.966
-109.766
-113.158
-122.343
-132.974
-142.272
-149.025
-152.164
-150.883
-145.133
-135.361
-123.117
-110.925
-100.225
-91.461
-84.923
-80.654
-78.611
-78.722
-80.361
-82.401
-84.127
-85.24
-85.607
-85.322
-84.395
-82.729
-80.362
-77.451
-74.124
-70.472
-66.528
-62.251
-57.653
-52.806
-47.796
-42.735
-37.692
-32.691
-27.743
-22.848
-18.002
-13.205
-8.444
-3.69
1.077
5.874
10.706
15.569
20.465
25.406
30.408
35.492
40.667
45.928
51.269
56.679
62.142
67.644
73.162
78.667
84.137
89.548
94.881
100.116
105.231
110.201
115.003
119.612
124.002
128.148
132.024
135.605
138.866
141.786
144.345
146.524
148.305
149.674
150.617
151.124
151.184
150.793
149.945
148.639
146.877
144.662
142.001
138.903
135.38
131.445
127.114
122.405
117.34
111.939
106.226
100.227
93.97
87.481
80.79
73.928
66.925
59.811
52.619
45.38
38.123
30.878
23.676
16.543
9.508
2.595
-4.172
-10.769
-17.178
-23.378
-29.354
-35.092
-40.579
-45.806
-50.764
-55.449
-59.855
-63.98
-67.825
-71.392
-74.683
-77.704
-80.463
-82.968
-85.232
-87.265
-89.081
-90.694
-92.12
-93.374
-94.47
-95.425
-96.252
-96.968
-97.586
-98.122
-98.589
-99
-99.368
-99.704
-100.018
-100.32
-100.618
-100.917
-101.223
-101.541
-101.874
-102.224
-102.593
-102.983
-103.395
-103.828
-104.282
-104.756
-105.246
-105.749
-106.26
-106.774
-107.284
-107.784
-108.266
-108.725
-109.154
-109.551
-109.913
-110.238
-110.525
-110.774
-110.985
-111.156
-111.288
-111.377
-111.418
-111.407
-111.343
-111.228
-111.064
-110.857
-110.609
-110.327
-110.015
-109.672
-109.303
-108.904
-108.466
-107.986
-107.463
-106.907
-106.347
-105.805
-105.298
-104.842
-104.439
-104.082
-103.768
-103.473
-103.153
-102.776
-102.302
-101.702
-100.977
-100.111
-99.094
-97.91
-96.504
-94.824
-92.854
-90.592
-88.075
-85.37
-82.535
-79.65
-76.832
-74.217
-71.976
-70.266
-69.21
-68.929
-69.479
-70.986
-73.724
-77.778
-83.004
-89.026
-95.104
-100.549
-104.953
-107.69
-107.972
-105.601
-100.832
-94.734
-89.449
-86.729
-87.78
-93.962
-106.097
-123.664
-145.133
-167.245
-185.093
-194.05
-189.55
-166.872
-122.469
-56.968
25.068
118.061
216.681
321.846
437.451
558.582
669.573
745.226
761.342
708.833
598.225
450.325
280.238
99.802
-83.796
-260.08
-402.213
-490.907
-520.406
-499.287
-455.846
-411.076
-373.213
-342.485
-310.384
-274.687
-239.058
-207.31
-184.116
-170.05
-162.555
-159.455
-157.823
-155.104
-150.388
-143.283
-134.013
-123.498
-112.53
-101.744
-91.974
-83.995
-78.112
-74.332
-72.394
-71.806
-72.157
-73.1
-74.26
-75.266
-75.863
-75.904
-75.324
-74.138
-72.344
-69.932
-66.911
-63.311
-59.187
-54.599
-49.608
-44.269
-38.649
-32.832
-26.904
-20.955
-15.047
-9.212
-3.47
2.174
7.723
13.183
18.57
23.912
29.234
34.552
39.883
45.234
50.618
56.053
61.553
67.134
72.801
78.556
84.395
90.311
96.294
102.329
108.398
114.476
120.541
126.573
132.553
138.46
144.273
149.971
155.53
160.93
166.148
171.158
175.938
180.461
184.705
188.647
192.266
195.542
198.456
200.992
203.133
204.867
206.182
207.069
207.518
207.525
207.085
206.198
204.865
203.089
200.878
198.239
195.186
191.731
187.891
183.685
179.131
174.252
169.071
163.611
157.898
151.958
145.817
139.504
133.047
126.473
119.812
113.09
106.335
99.575
92.834
86.138
79.51
72.971
66.544
60.248
54.1
48.119
42.318
36.712
31.311
26.126
21.164
16.431
11.931
7.666
3.635
-0.162
-3.731
-7.075
-10.201
-13.116
-15.83
-18.352
-20.691
-22.857
-24.861
-26.713
-28.424
-30.003
-31.462
-32.81
-34.055
-35.207
-36.274
-37.263
-38.181
-39.033
-39.825
-40.562
-41.247
-41.883
-42.472
-43.018
-43.522
-43.986
-44.41
-44.794
-45.138
-45.441
-45.699
-45.91
-46.071
-46.177
-46.224
-46.208
-46.127
-45.981
-45.771
-45.499
-45.167
-44.778
-44.336
-43.844
-43.304
-42.715
-42.076
-41.388
-40.654
-39.879
-39.071
-38.234
-37.376
-36.507
-35.633
-34.762
-33.898
-33.041
-32.19
-31.351
-30.534
-29.755
-29.048
-28.439
-27.945
-27.581
-27.354
-27.262
-27.302
-27.448
-27.658
-27.896
-28.123
-28.31
-28.441
-28.484
-28.411
-28.19
-27.762
-27.079
-26.135
-24.949
-23.557
-22.026
-20.41
-18.779
-17.281
-16.094
-15.398
-15.375
-16.188
-17.942
-20.802
-25.02
-30.68
-37.717
-45.844
-54.416
-62.87
-70.871
-77.885
-83.214
-86.643
-88.212
-88.577
-89.431
-91.968
-96.699
-104.519
-116.215
-131.492
-149.525
-168.06
-182.756
-190.198
-187.994
-172.809
-141.355
-91.508
-21.969
63.938
157.692
252.532
344.138
433.352
524.365
613.944
690.434
732.879
719.116
639.291
496.057
306.688
96.929
-108.281
-283.819
-412.338
-487.783
-515.021
-511.374
-492.935
-468.226
-439.015
-399.661
-349.262
-293.809
-239.729
-194.223
-161.147
-140.347
-131.254
-132.192
-139.471
-148.793
-157.349
-163.552
-166.823
-167.109
-163.776
-156.583
-146.811
-136.646
-127.596
-120.333
-114.86
-110.848
-108.432
-107.741
-108.33
-109.325
-109.976
-109.891
-109.012
-107.502
-105.373
-102.537
-99.004
-94.876
-90.305
-85.416
-80.26
-74.823
-69.115
-63.203
-57.171
-51.126
-45.139
-39.236
-33.434
-27.735
-22.138
-16.646
-11.252
-5.94
-0.694
4.494
9.63
14.71
19.731
24.7
29.63
34.539
39.439
44.33
49.21
54.072
58.909
63.71
68.461
73.143
77.74
82.238
86.622
90.881
95.002
98.969
102.766
106.376
109.783
112.967
115.911
118.596
121.005
123.12
124.928
126.414
127.566
128.374
128.828
128.919
128.64
127.987
126.954
125.538
123.737
121.552
118.983
116.035
112.711
109.018
104.964
100.56
95.815
90.744
85.359
79.675
73.709
67.478
61.001
54.297
47.387
40.293
33.036
25.641
18.13
10.527
2.854
-4.864
-12.606
-20.348
-28.069
-35.747
-43.362
-50.892
-58.317
-65.617
-72.773
-79.765
-86.576
-93.187
-99.582
-105.743
-111.654
-117.302
-122.669
-127.743
-132.51
-136.957
-141.071
-144.841
-148.257
-151.308
-153.986
-156.282
-158.19
-159.704
-160.819
