Name,Aleksandre Beruashvili
Date of Birth,"Dec 20, 1998"
Recorded Date,2024-05-20 11:19:32 +0400
Classification,Sinus Rhythm
Symptoms,
Software Version,1.90
Device,"Watch7,2"
Sample Rate,512 hertz


Lead,Lead I
Unit,µV

-114.529
-178.95
-218.596
-225.898
-205.066
-171.106
-138.937
-116.732
-105.36
-98.912
-92.477
-85.061
-77.681
-72.803
-71.363
-72.17
-73.621
-74.379
-73.909
-72.342
-69.954
-67.057
-63.962
-61.053
-58.742
-57.193
-56.403
-56.254
-56.541
-57.086
-57.714
-58.257
-58.59
-58.652
-58.411
-57.826
-56.873
-55.528
-53.776
-51.615
-49.045
-46.066
-42.68
-38.921
-34.828
-30.445
-25.822
-20.98
-15.917
-10.627
-5.101
0.668
6.682
12.953
19.499
26.325
33.423
40.783
48.395
56.256
64.368
72.726
81.326
90.157
99.205
108.452
117.874
127.441
137.117
146.864
156.636
166.39
176.082
185.665
195.091
204.312
213.282
221.951
230.266
238.174
245.609
252.52
258.86
264.589
269.673
274.091
277.827
280.885
283.288
285.047
286.179
286.697
286.603
285.913
284.639
282.782
280.356
277.358
273.766
269.56
264.708
259.143
252.803
245.607
237.447
228.261
218.001
206.629
194.151
180.572
165.928
150.313
133.835
116.617
98.824
80.61
62.154
43.73
25.621
8.133
-8.407
-23.766
-37.77
-50.208
-60.86
-69.606
-76.485
-81.751
-85.718
-88.504
-90.004
-90.085
-88.858
-86.475
-82.865
-77.621
-70.213
-60.541
-49.231
-37.253
-25.244
-13.67
-3.092
5.628
11.354
13.525
12.626
9.766
5.85
1.515
-2.732
-6.237
-8.014
-7.471
-4.815
-0.795
3.911
8.912
14.036
19.124
23.788
27.728
30.968
33.776
36.413
38.962
41.372
43.537
45.432
47.095
48.52
49.657
50.457
50.91
51.048
50.933
50.62
50.128
49.469
48.648
47.678
46.579
45.37
44.065
42.676
41.211
39.677
38.078
36.418
34.695
32.908
31.056
29.137
27.154
25.112
23.021
20.889
18.722
16.526
14.302
12.052
9.777
7.478
5.156
2.808
0.436
-1.963
-4.387
-6.838
-9.314
-11.817
-14.347
-16.906
-19.493
-22.109
-24.752
-27.421
-30.117
-32.836
-35.578
-38.342
-41.124
-43.924
-46.739
-49.568
-52.409
-55.262
-58.123
-60.992
-63.869
-66.75
-69.636
-72.523
-75.41
-78.295
-81.174
-84.045
-86.905
-89.749
-92.575
-95.38
-98.159
-100.909
-103.628
-106.311
-108.957
-111.563
-114.127
-116.647
-119.121
-121.548
-123.928
-126.258
-128.538
-130.768
-132.946
-135.074
-137.15
-139.176
-141.15
-143.073
-144.946
-146.767
-148.538
-150.259
-151.928
-153.548
-155.118
-156.639
-158.114
-159.545
-160.933
-162.28
-163.59
-164.863
-166.102
-167.31
-168.486
-169.633
-170.751
-171.841
-172.902
-173.937
-174.944
-175.925
-176.88
-177.809
-178.713
-179.593
-180.452
-181.292
-182.112
-182.909
-183.675
-184.404
-185.091
-185.724
-186.292
-186.78
-187.17
-187.449
-187.61
-187.637
-187.507
-187.194
-186.659
-185.869
-184.801
-183.438
-181.77
-179.791
-177.485
-174.845
-171.879
-168.587
-164.964
-160.983
-156.581
-151.71
-146.345
-140.47
-134.116
-127.298
-119.98
-112.126
-103.669
-94.535
-84.73
-74.241
-62.983
-50.978
-38.316
-25.184
-12.053
0.633
12.718
24.087
34.759
45.022
55.022
65.086
76.078
88.82
103.847
121.465
141.329
162.598
184.82
207.321
228.794
247.746
262.366
271.252
274.283
271.745
263.518
250.115
232.526
213.73
199.721
194.075
198.057
211.565
231.515
261.205
309.914
383.769
486.977
614.679
752.079
888.923
1020.333
1143.412
1255.892
1347.576
1398.824
1391.932
1320.36
1187.065
1004.496
792.278
567.399
349.957
165.921
32.781
-42.26
-64.535
-55.661
-36.742
-17.757
-0.915
19.232
48.899
86.829
127.886
166.786
198.57
221.037
234.882
241.653
243.082
241.082
237.333
232.802
228.731
226.88
228.031
232.267
239.395
248.494
258.55
268.9
278.514
286.101
290.999
292.95
291.991
288.653
283.502
277.043
269.933
262.839
256.166
250.139
244.849
240.265
236.401
233.321
231.074
229.672
229.12
229.427
230.56
232.453
234.976
237.913
241.061
244.285
247.491
250.636
253.709
256.682
259.545
262.308
264.959
267.488
269.886
272.135
274.243
276.248
278.204
280.195
282.3
284.573
287.051
289.757
292.696
295.868
299.266
302.864
306.644
310.594
314.702
318.962
323.361
327.878
332.486
337.153
341.843
346.521
351.155
355.707
360.145
364.437
368.554
372.469
376.155
379.58
382.713
385.52
387.969
390.027
391.663
392.845
393.546
393.738
393.399
392.509
391.049
389.006
386.366
383.12
379.263
374.791
369.703
364.002
357.693
350.784
343.286
335.213
326.581
317.409
307.719
297.535
286.882
275.79
264.288
252.406
240.178
227.636
214.816
201.753
188.484
175.045
161.474
147.808
134.084
120.337
106.601
92.911
79.297
65.792
52.423
39.217
26.201
13.398
0.829
-11.485
-23.526
-35.279
-46.73
-57.866
-68.677
-79.156
-89.297
-99.094
-108.545
-117.65
-126.409
-134.824
-142.901
-150.643
-158.059
-165.156
-171.944
-178.432
-184.632
-190.555
-196.212
-201.617
-206.782
-211.719
-216.441
-220.96
-225.289
-229.44
-233.425
-237.256
-240.943
-244.498
-247.93
-251.249
-254.464
-257.583
-260.616
-263.57
-266.451
-269.268
-272.024
-274.727
-277.38
-279.988
-282.554
-285.081
-287.57
-290.024
-292.443
-294.829
-297.183
-299.504
-301.794
-304.053
-306.281
-308.479
-310.648
-312.787
-314.897
-316.979
-319.035
-321.066
-323.073
-325.058
-327.023
-328.97
-330.901
-332.82
-334.728
-336.627
-338.52
-340.41
-342.3
-344.193
-346.092
-348.002
-349.926
-351.87
-353.839
-355.839
-357.874
-359.951
-362.076
-364.254
-366.492
-368.795
-371.171
-373.624
-376.161
-378.788
-381.51
-384.333
-387.26
-390.297
-393.448
-396.715
-400.102
-403.613
-407.249
-411.013
-414.907
-418.934
-423.096
-427.393
-431.827
-436.399
-441.107
-445.95
-450.927
-456.034
-461.268
-466.622
-472.092
-477.671
-483.352
-489.128
-494.988
-500.924
-506.924
-512.977
-519.073
-525.199
-531.342
-537.489
-543.628
-549.748
-555.837
-561.882
-567.871
-573.792
-579.633
-585.384
-591.033
-596.569
-601.981
-607.26
-612.398
-617.389
-622.226
-626.906
-631.426
-635.787
-639.99
-644.041
-647.948
-651.722
-655.375
-658.921
-662.372
-665.739
-669.036
-672.275
-675.469
-678.632
-681.778
-684.92
-688.074
-691.259
-694.492
-697.786
-701.149
-704.574
-708.056
-711.597
-715.212
-718.924
-722.756
-726.72
-730.826
-735.093
-739.531
-744.145
-748.91
-753.759
-758.631
-763.481
-768.287
-773.07
-777.834
-782.522
-787.051
-791.312
-795.189
-798.652
-801.65
-804.051
-805.845
-807.112
-808.027
-809.021
-810.476
-812.458
-815.029
-818.204
-821.643
-825.115
-828.39
-830.756
-831.734
-831.233
-828.993
-825.139
-820.414
-815.161
-809.602
-804.437
-799.931
-796.342
-794.68
-795.297
-797.763
-802.192
-808.678
-817.001
-827.358
-837.773
-843.542
-841.155
-828.41
-806.41
-778.854
-744.794
-698.259
-628.925
-526.659
-389.582
-223.389
-40.237
145.941
324.533
483.345
610.753
696.603
728.922
705.518
630.545
509.371
357.985
191.144
24.6
-119.503
-230.391
-303.845
-342.945
-362.406
-370.641
-370.404
-361.216
-337.164
-298.234
-249.43
-196.429
-146.392
-103.242
-68.086
-41.752
-23.628
-12.352
-6.596
-4.38
-3.679
-3.128
-1.28
3.054
10.173
19.977
32.035
45.453
59.381
73.076
85.55
96.105
104.539
110.804
115.144
118
119.736
120.824
121.861
123.224
125.119
127.662
130.816
134.55
138.882
143.759
149.097
154.845
160.952
167.4
174.181
181.246
188.517
195.905
203.337
210.775
218.202
225.61
232.998
240.372
247.744
255.148
262.61
270.143
277.761
285.467
293.272
301.193
309.25
317.459
325.834
334.378
343.09
351.968
361.002
370.179
379.479
388.878
398.352
407.88
417.439
427.006
436.554
446.053
455.472
464.78
473.941
482.919
491.672
500.161
508.344
516.179
523.625
530.641
537.184
543.215
548.693
553.58
557.841
561.44
564.346
566.527
567.958
568.616
568.48
567.534
565.766
563.168
559.736
555.469
550.374
544.459
537.737
530.225
521.944
512.921
503.185
492.769
481.709
470.047
457.827
445.095
431.903
418.302
404.345
390.091
375.594
360.913
346.106
331.23
316.344
301.503
286.763
272.178
257.801
243.68
229.863
216.394
203.313
190.658
178.462
166.755
155.562
144.905
134.8
125.261
116.297
107.913
100.108
92.881
86.223
80.124
74.569
69.54
65.016
60.974
57.386
54.224
51.456
49.051
46.974
45.19
43.663
42.357
41.236
40.263
39.402
38.618
37.876
37.144
36.39
35.585
34.7
33.71
32.592
31.325
29.892
28.276
26.466
24.45
22.222
19.777
17.113
14.23
11.132
7.824
4.314
0.61
-3.274
-7.326
-11.531
-15.873
-20.333
-24.895
-29.537
-34.241
-38.986
-43.751
-48.515
-53.257
-57.957
-62.593
-67.145
-71.596
-75.924
-80.114
-84.148
-88.012
-91.69
-95.171
-98.443
-101.497
-104.324
-106.919
-109.277
-111.393
-113.266
-114.896
-116.283
-117.428
-118.337
-119.012
-119.461
-119.688
-119.703
-119.513
-119.127
-118.556
-117.809
-116.896
-115.828
-114.616
-113.272
-111.808
-110.233
-108.561
-106.802
-104.968
-103.07
-101.117
-99.118
-97.084
-95.02
-92.935
-90.834
-88.721
-86.6
-84.474
-82.345
-80.214
-78.083
-75.95
-73.813
-71.67
-69.516
-67.348
-65.161
-62.947
-60.699
-58.411
-56.076
-53.685
-51.232
-48.708
-46.104
-43.413
-40.627
-37.737
-34.736
-31.615
-28.367
-24.986
-21.47
-17.815
-14.019
-10.083
-6.01
-1.807
2.518
6.957
11.5
16.139
20.86
25.648
30.486
35.358
40.247
45.133
49.998
54.816
59.561
64.21
68.742
73.139
77.382
81.446
85.308
88.95
92.356
95.513
98.405
101.003
103.282
105.227
106.83
108.086
109.001
109.579
109.831
109.787
109.478
108.933
108.186
107.259
106.162
104.92
103.549
102.062
100.496
98.873
97.223
95.603
94.011
92.379
90.653
88.774
86.629
84.096
80.911
76.648
71.087
64.233
56.152
46.938
36.687
25.541
14.096
3.526
-5.221
-11.635
-15.538
-17.045
-16.095
-12.558
-7.075
-1.477
2.262
2.532
-1.63
-10.245
-23.488
-41.745
-64.28
-88.439
-110.49
-126.21
-131.406
-122.893
-97.347
-50.818
18.243
107.305
212.013
326.428
447.192
576.353
713.857
854.274
982.625
1075.947
1114.176
1084.78
991.107
846.065
662.483
459.181
250.756
53.707
-106.691
-218.592
-279.107
-296.043
-293.065
-284.659
-275.803
-265.843
-246.027
-214.244
-174.877
-132.699
-93.511
-59.793
-31.389
-8.879
7.594
18.454
24.317
26.079
24.224
19.026
11.212
2.394
-5.523
-11.446
-15.065
-16.451
-15.731
-12.989
-8.512
-3.224
1.615
5.281
7.553
8.559
8.648
8.043
6.906
5.611
4.645
4.303
4.704
5.796
7.387
9.361
11.662
14.212
16.927
19.723
22.518
25.254
27.897
30.415
32.786
34.992
37.017
38.864
40.545
42.088
43.536
44.916
46.249
47.548
48.82
50.084
51.363
52.68
54.056
55.512
57.063
58.73
60.529
62.475
64.572
66.823
69.225
71.777
74.481
77.338
80.346
83.502
86.797
90.224
93.774
97.432
101.18
105
108.868
112.76
116.653
120.52
124.334
128.069
131.694
135.182
138.504
141.629
144.529
147.173
149.534
151.584
153.296
154.644
155.604
156.153
156.271
155.938
155.139
153.86
152.086
149.811
147.025
143.726
139.912
135.585
130.748
125.409
119.579
113.271
106.5
99.286
91.649
83.611
75.197
66.434
57.35
47.973
38.334
28.464
18.394
8.157
-2.215
-12.69
-23.236
-33.821
-44.414
-54.985
-65.503
-75.941
-86.271
-96.466
-106.502
-116.355
-126.002
-135.423
-144.6
-153.513
-162.149
-170.494
-178.535
-186.263
-193.669
-200.748
-207.495
-213.906
-219.98
-225.718
-231.122
-236.193
-240.937
-245.358
-249.462
-253.257
-256.751
-259.951
-262.866
-265.506
-267.881
-270
-271.874
-273.513
-274.928
-276.129
-277.127
-277.933
-278.559
-279.015
-279.314
-279.465
-279.481
-279.372
-279.149
-278.824
-278.406
-277.906
-277.334
-276.699
-276.011
-275.28
-274.513
-273.72
-272.908
-272.087
-271.263
-270.444
-269.637
-268.85
-268.089
-267.362
-266.674
-266.034
-265.447
-264.919
-264.457
-264.067
-263.754
-263.524
-263.38
-263.327
-263.37
-263.51
-263.751
-264.095
-264.544
-265.099
-265.761
-266.531
-267.408
-268.393
-269.484
-270.679
-271.979
-273.381
-274.883
-276.483
-278.179
-279.969
-281.851
-283.821
-285.877
-288.016
-290.235
-292.529
-294.894
-297.328
-299.826
-302.383
-304.995
-307.658
-310.367
-313.12
-315.911
-318.736
-321.591
-324.472
-327.375
-330.295
-333.228
-336.17
-339.118
-342.069
-345.018
-347.963
-350.901
-353.829
-356.742
-359.637
-362.511
-365.359
-368.177
-370.961
-373.705
-376.408
-379.064
-381.669
-384.221
-386.715
-389.148
-391.519
-393.824
-396.061
-398.226
-400.319
-402.338
-404.285
-406.161
-407.968
-409.709
-411.391
-413.02
-414.603
-416.147
-417.657
-419.14
-420.601
-422.05
-423.493
-424.937
-426.391
-427.863
-429.363
-430.902
-432.493
-434.144
-435.859
-437.641
-439.494
-441.421
-443.422
-445.495
-447.637
-449.842
-452.114
-454.452
-456.846
-459.285
-461.751
-464.215
-466.647
-469.003
-471.231
-473.284
-475.115
-476.687
-477.966
-478.908
-479.476
-479.631
-479.339
-478.584
-477.346
-475.587
-473.256
-470.326
-466.825
-462.857
-458.538
-453.898
-448.987
-443.947
-439.051
-434.642
-430.916
-427.799
-425.096
-422.802
-420.949
-419.331
-417.362
-414.089
-408.64
-400.734
-390.55
-378.036
-362.93
-345.237
-325.567
-305.459
-286.851
-270.855
-257.556
-247.198
-240.448
-237.818
-239.109
-240.91
-237.348
-224.217
-199.374
-164.894
-125.074
-78.486
-19.698
59.567
168.151
305.2
462.617
629.271
791.49
938.737
1060.966
1146.015
1180.533
1153.221
1061.812
912.102
720.136
510.065
304.102
125.58
-7.551
-91.726
-130.716
-138.309
-132.337
-120.69
-105.572
-84.537
-52.785
-12.373
31.212
72.772
107.081
132.33
148.927
157.541
159.968
158.449
155.059
151.621
149.493
149.415
151.862
157.024
164.594
173.8
183.606
192.989
201.006
207.115
211.07
212.767
212.372
210.226
206.767
202.578
198.322
194.414
191.086
188.476
186.572
185.373
184.9
185.088
185.826
187.044
188.685
190.72
193.156
195.948
199.019
202.281
205.63
209.008
212.392
215.77
219.142
222.519
225.912
229.355
232.899
236.578
240.417
244.438
248.652
253.083
257.76
262.713
267.966
273.538
279.439
285.674
292.245
299.149
306.375
313.909
321.728
329.812
338.144
346.7
355.459
364.394
373.474
382.668
391.942
401.26
410.581
419.864
429.065
438.14
447.044
455.731
464.157
472.276
480.043
487.416
494.351
500.808
506.747
512.132
516.927
521.1
524.621
527.466
529.609
531.032
531.719
531.658
530.841
529.263
526.923
523.826
519.977
515.388
510.074
504.052
497.345
489.977
481.976
473.376
464.21
454.515
444.332
433.7
422.664
411.268
399.557
387.576
375.373
362.994
350.484
337.89
325.258
312.63
300.051
287.561
275.201
263.008
251.019
239.266
227.782
216.594
205.73
195.212
185.063
175.299
165.938
156.991
148.469
140.379
132.727
125.516
118.744
112.409
106.506
101.03
95.97
91.316
87.056
83.175
79.66
76.493
73.658
71.136
68.908
66.955
65.256
63.793
62.544
61.49
60.61
59.885
59.296
58.824
58.451
58.16
57.934
57.758
57.618
57.498
57.388
57.276
57.152
57.007
56.835
56.627
56.381
56.091
55.756
55.375
54.946
54.471
53.952
53.391
52.792
52.16
51.499
50.815
50.115
49.405
48.692
47.984
47.288
46.613
45.965
45.354
44.787
44.271
43.813
43.421
43.1
42.858
42.697
42.624
42.642
42.752
42.958
43.26
43.657
44.149
44.732
45.404
46.159
46.993
47.899
48.869
49.896
50.971
52.083
53.223
54.38
55.543
56.7
57.838
58.946
60.012
61.024
61.968
62.833
63.608
64.281
64.843
65.282
65.589
65.756
65.775
65.64
65.344
64.885
64.257
63.462
62.499
61.37
60.079
58.631
57.031
55.286
53.407
51.402
49.284
47.065
44.757
42.376
39.936
37.456
34.95
32.436
29.931
27.451
25.014
22.637
20.335
18.124
16.018
14.031
12.178
10.47
8.919
7.532
6.318
5.282
4.43
3.759
3.268
2.948
2.794
2.795
2.941
3.217
3.608
4.1
4.68
5.335
6.048
6.802
7.571
8.334
9.07
9.756
10.372
10.893
11.296
11.566
11.696
11.674
11.49
11.119
10.522
9.673
8.554
7.15
5.451
3.456
1.165
-1.391
-4.16
-7.093
-10.143
-13.279
-16.493
-19.75
-23.002
-26.195
-29.247
-32.106
-34.747
-37.124
-39.207
-41.034
-42.659
-44.187
-45.783
-47.561
-49.611
-52.067
-55.032
-58.554
-62.694
-67.571
-73.349
-80.188
-88.199
-97.244
-106.943
-117.038
-127.264
-136.779
-144.684
-150.342
-152.836
-153.385
-154.027
-154.294
-154.903
-154.532
-150.348
-145.457
-141.869
-142.113
-151.924
-171.19
-197.634
-224.85
-238.27
-221.408
-161.362
-56.791
82.772
238.904
393.081
539.001
674.305
798.08
906.03
981.834
1007.612
970.916
868.248
708.533
509.363
291.099
74.231
-122.101
-283.501
-399.346
-465.784
-485.23
-464.06
-415.74
-354.709
-296.817
-255.833
-234.09
-226.54
-221.022
-205.465
-177.594
-142.309
-108.975
-84.959
-71.35
-65.464
-63.656
-64.185
-66.665
-70.516
-74.826
-78.069
-79.318
-78.692
-76.281
-72.106
-66.421
-59.659
-52.673
-46.582
-41.931
-38.702
-36.701
-35.605
-35.157
-35.18
-35.329
-35.162
-34.418
-33.016
-31.007
-28.551
-25.751
-22.642
-19.284
-15.749
-12.109
-8.435
-4.785
-1.197
2.307
5.71
9.002
12.179
15.246
18.221
21.142
24.06
27.009
30.016
33.099
36.273
39.564
43.004
46.619
50.434
54.471
58.746
63.278
68.085
73.174
78.548
84.205
90.135
96.332
102.793
109.51
116.471
123.665
131.075
138.682
146.468
154.406
162.469
170.624
178.838
187.074
195.296
203.465
211.542
219.486
227.254
234.806
242.099
249.093
255.746
262.017
267.867
273.26
278.158
282.527
286.337
289.557
292.161
294.124
295.428
296.054
295.987
295.218
293.74
291.549
288.648
285.039
280.731
275.738
270.075
263.763
256.825
249.29
241.189
232.554
223.424
213.837
203.835
193.462
182.761
171.779
160.563
149.16
137.617
125.983
114.303
102.625
90.994
79.455
68.05
56.822
45.81
35.051
24.581
14.433
4.635
-4.783
-13.797
-22.386
-30.531
-38.217
-45.43
-52.162
-58.407
-64.162
-69.427
-74.206
-78.506
-82.335
-85.705
-88.63
-91.126
-93.21
-94.901
-96.22
-97.188
-97.828
-98.164
-98.218
-98.015
-97.58
-96.938
-96.111
-95.125
-94.002
-92.765
-91.436
-90.037
-88.587
-87.106
-85.612
-84.121
-82.65
-81.214
-79.823
-78.491
-77.226
-76.036
-74.928
-73.907
-72.976
-72.137
-71.393
-70.743
-70.186
-69.721
-69.346
-69.059
-68.855
-68.733
-68.687
-68.714
-68.81
-68.97
-69.191
-69.467
-69.796
-70.173
-70.595
-71.057
-71.557
-72.09
-72.653
-73.243
-73.856
-74.49
-75.143
-75.811
-76.494
-77.19
-77.899
-78.619
-79.35
-80.092
-80.844
-81.606
-82.376
-83.155
-83.941
-84.733
-85.529
-86.327
-87.123
-87.917
-88.704
-89.48
-90.241
-90.982
-91.697
-92.382
-93.029
-93.633
-94.187
-94.684
-95.118
-95.484
-95.775
-95.985
-96.106
-96.134
-96.061
-95.882
-95.589
-95.176
-94.637
-93.967
-93.159
-92.212
-91.119
-89.879
-88.489
-86.947
-85.254
-83.41
-81.418
-79.279
-76.998
-74.58
-72.033
-69.365
-66.585
-63.704
-60.734
-57.691
-54.593
-51.454
-48.293
-45.126
-41.972
-38.85
-35.777
-32.768
-29.838
-27
-24.272
-21.674
-19.224
-16.938
-14.83
-12.916
-11.208
-9.723
-8.466
-7.435
-6.632
-6.057
-5.722
-5.65
-5.855
-6.339
-7.107
-8.155
-9.474
-11.052
-12.858
-14.837
-16.942
-19.129
-21.364
-23.638
-25.921
-28.171
-30.339
-32.352
-34.163
-35.744
-37.054
-38.067
-38.799
-39.288
-39.619
-39.926
-40.303
-40.844
-41.667
-42.854
-44.514
-46.741
-49.62
-53.331
-58.031
-63.749
-70.385
-77.643
-85.056
-92.203
-98.594
-103.447
-106.113
-106.286
-104.162
-100.611
-96.727
-93.687
-92.787
-95.543
-103.664
-116.634
-131.279
-144.355
-151.745
-153.453
-154.581
-154.498
-149.944
-131.733
-81.699
7.736
137.606
302.914
483.145
660.787
816.898
927.85
982.259
973.729
904.606
790.914
645.15
474.511
286.599
87.206
-108.853
-275.03
-392.919
-455.857
-472.418
-466.929
-456.685
-447.936
-438.638
-419.684
-388.566
-349.24
-307.249
-269.069
-237.451
-212.794
-195.593
-185.053
-180.137
-179.915
-182.969
-188.351
-195.338
-202.471
-208.168
-211.572
-212.407
-210.911
-207.656
-203.027
-197.392
-191.591
-186.65
-183.184
-181.386
-181.109
-181.929
-183.481
-185.515
-187.638
-189.378
-190.456
-190.736
-190.213
-189.028
-187.292
-185.05
-182.377
-179.359
-176.05
-172.519
-168.825
-165.005
-161.125
-157.236
-153.365
-149.537
-145.758
-142.017
-138.3
-134.578
-130.809
-126.966
-123.033
-118.995
-114.844
-110.565
-106.135
-101.536
-96.751
-91.764
-86.566
-81.148
-75.503
-69.634
-63.55
-57.263
-50.791
-44.15
-37.352
-30.415
-23.356
-16.194
-8.951
-1.651
5.682
13.021
20.334
27.59
34.754
41.793
48.673
55.36
61.82
68.019
73.923
79.5
84.718
89.548
93.958
97.923
101.414
104.409
106.885
108.824
110.207
111.021
111.255
110.901
109.955
108.415
106.282
103.561
100.261
96.391
91.967
87.004
81.521
75.542
69.092
62.198
54.891
47.202
39.167
30.82
22.197
13.338
4.28
-4.937
-14.275
-23.693
-33.153
-42.616
-52.042
-61.393
-70.633
-79.726
-88.638
-97.336
-105.79
-113.97
-121.85
-129.406
-136.615
-143.457
-149.915
-155.971
-161.613
-166.829
-171.611
-175.951
-179.845
-183.291
-186.288
-188.839
-190.946
-192.615
-193.854
-194.669
-195.073
-195.075
-194.688
-193.926
-192.803
-191.336
-189.541
-187.435
-185.036
-182.363
-179.434
-176.267
-172.882
-169.296
-165.529
-161.599
-157.522
-153.319
-149.006
-144.601
-140.12
-135.582
-131.001
-126.395
-121.778
-117.167
-112.574
-108.015
-103.502
-99.05
-94.67
-90.376
-86.178
-82.089
-78.118
-74.276
-70.572
-67.014
-63.611
-60.369
-57.295
-54.396
-51.677
-49.144
-46.801
-44.653
-42.703
-40.955
-39.411
-38.073
-36.943
-36.021
-35.306
-34.799
-34.497
-34.399
-34.502
-34.803
-35.296
-35.977
-36.839
-37.877
-39.081
-40.445
-41.958
-43.612
-45.396
-47.301
-49.316
-51.429
-53.629
-55.904
-58.242
-60.63
-63.054
-65.499
-67.953
-70.4
-72.825
-75.215
-77.555
-79.829
-82.023
-84.122
-86.111
-87.977
-89.705
-91.281
-92.691
-93.922
-94.963
-95.805
-96.435
-96.845
-97.028
-96.978
-96.688
-96.155
-95.375
-94.342
-93.057
-91.519
-89.73
-87.693
-85.412
-82.894
-80.152
-77.2
-74.051
-70.723
-67.232
-63.595
-59.83
-55.96
-52.002
-47.98
-43.914
-39.828
-35.748
-31.703
-27.718
-23.817
-20.02
-16.343
-12.806
-9.425
-6.211
-3.179
-0.344
2.277
4.658
6.777
8.622
10.179
11.441
12.412
13.095
13.506
13.679
13.637
13.406
13.01
12.465
11.811
11.091
10.353
9.639
8.966
8.349
7.82
7.423
7.187
7.089
7.031
6.93
6.765
6.434
5.784
4.519
2.153
-1.578
-6.713
-13.339
-21.435
-30.74
-40.871
-50.884
-59.3
-65.159
-67.928
-67.182
-63.086
-56.231
-47.466
-38.646
-32.591
-31.599
-37.394
-51.268
-72.046
-96.68
-122.343
-145.981
-167.28
-187.842
-204.825
-210.225
-189.742
-129.852
-28.301
107.043
258.615
410.866
560.414
706.291
846.494
971.186
1056.941
1084.393
1048.245
954.842
823.42
671.784
506.109
331.208
153.622
-13.606
-150.841
-245.54
-297.17
-316.814
-319.326
-313.578
-301.421
-279.495
-246.179
-204.889
-161.604
-122.777
-92.361
-71.534
-59.858
-55.876
-57.96
-63.977
-71.474
-78.52
-83.337
-84.658
-82.184
-75.983
-66.5
-54.782
-41.96
-29.094
-17.407
-7.719
-0.289
4.795
7.741
8.97
8.876
7.97
6.91
6.167
5.994
6.531
7.761
9.648
12.212
15.411
19.154
23.37
27.995
32.99
38.347
44.034
49.983
56.114
62.331
68.555
74.738
80.854
86.89
92.841
98.71
104.511
110.275
116.033
121.814
127.639
133.522
139.483
145.544
151.731
158.07
164.581
171.276
178.164
185.248
192.528
200.001
207.656
215.48
223.456
231.567
239.795
248.123
256.53
264.992
273.485
281.981
290.451
298.864
307.186
315.383
323.417
331.249
338.843
346.16
353.159
359.803
366.053
371.87
377.218
382.062
386.366
390.098
393.228
395.728
397.571
398.736
399.203
398.956
397.982
396.274
393.825
390.635
386.705
382.041
376.654
370.555
363.763
356.296
348.178
339.436
330.1
320.204
309.784
298.879
287.529
275.778
263.672
251.255
238.577
225.684
212.627
199.454
186.214
172.958
159.733
146.587
133.566
120.715
108.077
95.693
83.601
71.838
60.436
49.427
38.838
28.695
19.019
9.83
1.144
-7.027
-14.671
-21.783
-28.359
-34.397
-39.899
-44.87
-49.317
-53.25
-56.681
-59.623
-62.094
-64.11
-65.693
-66.862
-67.641
-68.052
-68.121
-67.872
-67.332
-66.525
-65.479
-64.218
-62.768
-61.154
-59.401
-57.532
-55.571
-53.537
-51.453
-49.338
-47.21
-45.086
-42.982
-40.912
-38.889
-36.926
-35.031
-33.215
-31.485
-29.847
-28.307
-26.868
-25.534
-24.307
-23.188
-22.177
-21.274
-20.477
-19.785
-19.195
-18.704
-18.308
-18.004
-17.788
-17.656
-17.602
-17.623
-17.715
-17.874
-18.097
-18.379
-18.719
-19.113
-19.559
-20.054
-20.599
-21.19
-21.829
-22.514
-23.245
-24.024
-24.852
-25.73
-26.66
-27.644
-28.682
-29.777
-30.931
-32.145
-33.421
-34.76
-36.164
-37.634
-39.172
-40.778
-42.453
-44.198
-46.013
-47.895
-49.845
-51.859
-53.935
-56.068
-58.254
-60.489
-62.766
-65.08
-67.423
-69.789
-72.167
-74.549
-76.924
-79.282
-81.609
-83.894
-86.124
-88.286
-90.368
-92.357
-94.241
-96.006
-97.64
-99.132
-100.472
-101.647
-102.646
-103.458
-104.076
-104.491
-104.698
-104.692
-104.47
-104.031
-103.378
-102.516
-101.451
-100.19
-98.742
-97.113
-95.318
-93.369
-91.28
-89.066
-86.741
-84.321
-81.83
-79.29
-76.725
-74.154
-71.596
-69.069
-66.592
-64.186
-61.865
-59.644
-57.539
-55.564
-53.746
-52.115
-50.686
-49.475
-48.496
-47.745
-47.218
-46.905
-46.774
-46.798
-46.953
-47.21
-47.555
-47.962
-48.399
-48.837
-49.247
-49.603
-49.888
-50.059
-50.057
-49.883
-49.582
-49.27
-49.07
-49.007
-49.148
-49.697
-50.968
-53.317
-56.932
-61.682
-67.453
-74.437
-82.657
-91.818
-101.187
-109.535
-115.992
-120.461
-122.918
-122.894
-120.167
-115.023
-108.651
-103.351
-101.181
-103.117
-109.729
-122.167
-139.881
-160.05
-179.482
-193.242
-200.267
-205.089
-207.765
-204.161
-183.495
-128.407
-31.389
104.36
268.005
442.782
616.105
777.181
913.139
1007.357
1044.002
1018.71
936.646
814.261
668.585
502.959
321.092
127.936
-64.372
-227.639
-342.642
-403.608
-417.979
-409.448
-393.992
-376.887
-357.897
-329.816
-291.55
-248.677
-206.602
-171.399
-146.542
-131.661
-125.499
-126.395
-132.07
-140.161
-148.992
-156.915
-162.036
-163.54
-161.305
-155.431
-146.791
-136.537
-125.422
-114.429
-104.823
-97.2
-91.79
-88.646
-87.352
-87.455
-88.631
-90.355
-91.995
-93.186
-93.719
-93.496
-92.612
-91.107
-88.978
-86.301
-83.164
-79.637
-75.78
-71.623
-67.172
-62.472
-57.594
-52.618
-47.625
-42.664
-37.751
-32.895
-28.092
-23.331
-18.595
-13.85
-9.058
-4.188
0.785
5.882
11.123
16.535
22.146
27.984
34.076
40.438
47.083
54.017
61.242
68.755
76.548
84.607
92.915
101.454
110.205
119.148
128.26
137.513
146.878
156.322
165.81
175.305
184.766
194.151
203.415
212.513
221.401
230.032
238.359
246.339
253.924
261.07
267.736
273.877
279.454
284.429
288.766
292.432
295.398
297.636
299.124
299.843
299.777
298.917
297.255
294.789
291.522
287.46
282.613
276.996
270.629
263.533
255.736
247.269
238.164
228.461
218.199
207.42
196.171
184.497
172.448
160.073
147.422
134.547
121.5
108.331
95.093
81.836
68.611
55.465
42.446
29.601
16.971
4.598
-7.479
-19.225
-30.607
-41.595
-52.163
-62.286
-71.945
-81.121
-89.801
-97.974
-105.631
-112.769
-119.384
-125.479
-131.057
-136.122
-140.685
-144.754
-148.341
-151.461
-154.128
-156.359
-158.171
-159.583
-160.615
-161.288
-161.621
-161.638
-161.358
-160.804
-159.997
-158.958
-157.707
-156.265
-154.65
-152.882
-150.979
-148.956
-146.831
-144.618
-142.331
-139.983
-137.586
-135.151
-132.689
-130.208
-127.716
-125.222
-122.732
-120.254
-117.793
-115.356
-112.949
-110.578
-108.246
-105.961
-103.727
-101.548
-99.431
-97.38
-95.399
-93.495
-91.673
-89.937
-88.293
-86.748
-85.306
-83.974
-82.758
-81.663
-80.695
-79.861
-79.167
-78.618
-78.221
-77.983
-77.909
-78.006
-78.278
-78.732
-79.371
-80.2
-81.223
-82.442
-83.859
-85.475
-87.291
-89.307
-91.521
-93.932
-96.536
-99.328
-102.305
-105.461
-108.789
-112.28
-115.927
-119.721
-123.651
-127.708
-131.881
-136.158
-140.528
-144.978
-149.494
-154.064
-158.672
-163.305
-167.946
-172.58
-177.193
-181.769
-186.292
-190.747
-195.118
-199.391
-203.551
-207.583
-211.474
-215.209
-218.776
-222.162
-225.359
-228.354
-231.14
-233.707
-236.047
-238.154
-240.025
-241.653
-243.037
-244.173
-245.062
-245.704
-246.103
-246.261
-246.185
-245.879
-245.354
-244.622
-243.697
-242.597
-241.34
-239.946
-238.436
-236.832
-235.151
-233.412
-231.632
-229.826
-228.015
-226.216
-224.447
-222.731
-221.088
-219.535
-218.086
-216.748
-215.513
-214.377
-213.339
-212.408
-211.605
-210.949
-210.451
-210.127
-209.994
-210.067
-210.347
-210.808
-211.399
-212.079
-212.834
-213.676
-214.633
-215.708
-216.862
-218.029
-219.127
-220.097
-220.885
-221.395
-221.585
-221.511
-221.356
-221.462
-222.193
-223.768
-226.287
-229.804
-234.081
-238.651
-242.962
-246.276
-247.967
-247.749
-245.549
-241.43
-236.047
-230.466
-225.653
-222.647
-222.249
-224.768
-230.384
-239.275
-250.998
-264.664
-279.509
-294.555
-309.056
-322.757
-335.171
-345.392
-350.959
-348.044
-333.916
-307.31
-271.122
-230.755
-186.401
-133.644
-63.235
35.232
161.858
308.008
459.967
602.755
727.472
827.07
893.189
914.763
878.814
779.542
619.664
412.721
181.846
-48.849
-254.591
-416.648
-527.199
-586.621
-604.23
-591.155
-555.723
-505.17
-446.431
-389.399
-344.335
-317.011
-306.027
-302.665
-298.385
-289.281
-276.587
-266.087
-261.337
-261.633
-264.457
-265.74
-263.016
-256.459
-246.714
-234.668
-221.35
-207.452
-193.738
-181.319
-170.917
-162.696
-156.665
-152.575
-150.051
-148.78
-148.302
-147.994
-147.399
-146.279
-144.511
-142.129
-139.166
-135.603
-131.483
-126.893
-121.916
-116.626
-111.069
-105.261
-99.235
-93.056
-86.805
-80.572
-74.431
-68.422
-62.559
-56.845
-51.273
-45.827
-40.477
-35.178
-29.883
-24.546
-19.134
-13.614
-7.954
-2.114
3.944
10.258
16.862
23.778
31.027
38.623
46.573
54.881
63.544
72.553
81.895
91.557
101.522
111.771
122.283
133.032
143.986
155.114
166.379
177.741
189.155
200.576
211.954
223.239
234.379
245.32
256.009
266.39
276.411
286.019
295.159
303.78
311.834
319.271
326.047
332.119
337.45
342.004
345.75
348.661
350.716
351.898
352.194
351.597
350.104
347.719
344.449
340.306
335.309
329.479
322.845
315.438
307.296
298.46
288.975
278.888
268.253
257.123
245.557
233.612
221.349
208.83
196.118
183.277
170.369
157.458
144.607
131.875
119.323
107.007
94.984
83.303
72.015
61.166
50.796
40.945
31.648
22.936
14.834
7.365
0.549
-5.602
-11.077
-15.872
-19.984
-23.417
-26.177
-28.275
-29.723
-30.54
-30.745
-30.362
-29.416
-27.936
-25.951
-23.496
-20.605
-17.312
-13.657
-9.675
-5.406
-0.888
3.841
8.743
13.78
18.916
24.115
29.344
34.569
39.76
44.886
49.922
54.84
59.618
64.236
68.674
72.915
76.946
80.754
84.329
87.663
90.749
93.583
96.164
98.491
100.565
102.39
103.971
105.314
106.428
107.321
108.004
108.488
108.785
108.907
108.868
108.682
108.361
107.92
107.373
106.732
106.012
105.225
104.383
103.498
102.58
101.639
100.685
99.727
98.771
97.827
96.9
95.997
95.124
94.284
93.482
92.722
92.006
91.335
90.711
90.134
89.605
89.123
88.687
88.295
87.946
87.636
87.363
87.124
86.915
86.733
86.575
86.437
86.316
86.21
86.117
86.034
85.961
85.895
85.836
85.784
85.737
85.697
85.661
85.633
85.611
85.598
85.595
85.605
85.629
85.671
85.733
85.819
85.932
86.075
86.252
86.468
86.727
87.035
87.396
87.817
88.304
88.862
89.497
90.214
91.017
91.91
92.899
93.986
95.172
96.46
97.849
99.343
100.94
102.64
104.44
106.336
108.324
110.399
112.553
114.775
117.054
119.376
121.729
124.098
126.471
128.832
131.166
133.457
135.691
137.853
139.928
141.896
143.738
145.432
146.962
148.313
149.47
150.421
151.153
151.663
151.947
151.995
151.8
151.345
150.611
149.592
148.282
146.676
144.785
142.625
140.222
137.623
134.872
132.004
129.053
126.038
122.987
119.957
116.992
114.138
111.443
108.912
106.586
104.546
102.787
101.261
99.877
98.456
96.922
95.324
93.525
91.28
88.414
84.667
80.004
74.631
68.395
61.015
52.644
43.764
35.028
27.374
21.492
17.531
16.004
17.758
21.566
25.696
29.911
32.18
33.942
37.381
37.924
34.677
25.087
5.863
-16.343
-40.395
-64.768
-80.927
-84.427
-62.393
1.503
110.522
264.699
455.685
660.598
859.785
1030.225
1145.203
1195.346
1181.252
1115.523
1022.651
916.39
797.518
656.937
486.022
290.426
92.503
-73.477
-183.078
-231.092
-228.229
-199.88
-168.088
-141.099
-121.44
-105.365
-85.753
-62.562
-37.053
-9.693
14.098
31.324
42.125
46.166
46.043
44.319
41.399
37.676
33.747
30.662
29.344
30.093
32.678
36.477
41.126
46.513
52.088
56.874
60.237
61.903
61.933
60.751
58.716
56.067
53.176
50.529
48.447
47.102
46.546
46.672
47.388
48.647
50.371
52.471
54.886
57.563
60.446
63.496
66.646
69.806
72.92
75.947
78.862
81.665
84.364
86.971
89.52
92.057
94.615
97.216
99.883
102.633
105.49
108.486
111.652
115.015
118.602
122.434
126.53
130.904
135.564
140.51
145.74
151.247
157.024
163.067
169.368
175.918
182.702
189.707
196.912
204.298
211.839
219.507
227.269
235.091
242.938
250.773
258.557
266.249
273.809
281.194
288.361
295.267
301.87
308.126
313.994
319.433
324.404
328.87
332.796
336.149
338.899
341.019
342.486
343.279
343.379
342.774
341.453
339.41
336.642
333.151
328.943
324.026
318.415
312.126
305.18
297.601
289.417
280.658
271.358
261.552
251.279
240.579
229.495
218.07
206.349
194.377
182.202
169.869
157.424
144.913
132.381
119.871
107.426
95.088
82.895
70.885
59.093
47.554
36.296
25.348
14.736
4.481
-5.398
-14.883
-23.961
-32.621
-40.855
-48.657
-56.024
-62.955
-69.454
-75.523
-81.17
-86.403
-91.233
-95.672
-99.734
-103.434
-106.788
-109.812
-112.524
-114.943
-117.086
-118.972
-120.621
-122.051
-123.281
-124.329
-125.213
-125.95
-126.556
-127.047
-127.438
-127.741
-127.97
-128.136
-128.249
-128.32
-128.355
-128.363
-128.35
-128.322
-128.282
-128.233
-128.179
-128.121
-128.061
-127.997
-127.932
-127.864
-127.792
-127.717
-127.636
-127.55
-127.456
-127.354
-127.243
-127.12
-126.986
-126.84
-126.681
-126.509
-126.323
-126.125
-125.914
-125.692
-125.46
-125.22
-124.972
-124.72
-124.466
-124.212
-123.963
-123.72
-123.489
-123.272
-123.074
-122.898
-122.75
-122.632
-122.549
-122.503
-122.499
-122.539
-122.627
-122.765
-122.954
-123.197
-123.495
-123.848
-124.257
-124.721
-125.241
-125.815
-126.441
-127.12
-127.848
-128.625
-129.448
-130.313
-131.219
-132.162
-133.138
-134.144
-135.174
-136.226
-137.293
-138.372
-139.457
-140.543
-141.626
-142.7
-143.759
-144.799
-145.813
-146.798
-147.745
-148.652
-149.511
-150.319
-151.072
-151.766
-152.397
-152.961
-153.456
-153.879
-154.228
-154.498
-154.687
-154.793
-154.813
-154.745
-154.589
-154.343
-154.005
-153.575
-153.054
-152.442
-151.74
-150.949
-150.069
-149.104
-148.056
-146.929
-145.728
-144.457
-143.122
-141.733
-140.299
-138.833
-137.345
-135.848
-134.352
-132.87
-131.416
-129.998
-128.624
-127.302
-126.039
-124.846
-123.736
-122.722
-121.812
-121.016
-120.341
-119.797
-119.395
-119.135
-119.012
-119.024
-119.17
-119.461
-119.924
-120.574
-121.414
-122.45
-123.676
-125.085
-126.664
-128.38
-130.175
-131.997
-133.794
-135.533
-137.205
-138.778
-140.21
-141.446
-142.404
-143.034
-143.312
-143.206
-142.701
-141.818
-140.598
-139.138
-137.587
-136.069
-134.712
-133.641
-132.967
-132.828
-133.35
-134.698
-137.103
-140.696
-145.487
-151.316
-157.753
-164.263
-170.343
-175.346
-178.495
-179.227
-177.251
-172.943
-167.495
-162.285
-158.632
-157.713
-160.488
-167.624
-179.194
-193.783
-208.382
-219.214
-222.216
-213.49
-189.436
-146.77
-82.642
2.612
104.538
217.652
335.362
453.574
573.537
693.464
805.712
898.083
950.612
945.826
879.367
754.146
581.018
378.614
162.955
-47.91
-230.015
-367.162
-453.554
-491.636
-497.108
-484.799
-457.721
-417.693
-366.245
-308.373
-257.464
-222.998
-205.028
-196.902
-189.592
-178.101
-163.79
-152.488
-148.28
-151.209
-159.213
-168.294
-175.116
-178.902
-179.743
-177.986
-174.303
-169.183
-162.94
-156.412
-150.801
-146.718
-144.399
-143.862
-144.694
-146.472
-148.892
-151.478
-153.677
-155.183
-155.835
-155.581
-154.532
-152.774
-150.354
-147.357
-143.873
-139.956
-135.654
-131.011
-126.059
-120.86
-115.503
-110.041
-104.514
-98.943
-93.329
-87.665
-81.942
-76.134
-70.203
-64.125
-57.885
-51.473
-44.883
-38.102
-31.11
-23.89
-16.427
-8.708
-0.726
7.523
16.039
24.813
33.831
43.076
52.526
62.159
71.957
81.899
91.962
102.12
112.347
122.614
132.89
143.142
153.333
163.426
173.38
183.156
192.715
202.015
211.018
219.682
227.969
235.839
243.255
250.182
256.582
262.423
267.674
272.305
276.291
279.608
282.234
284.154
285.352
285.819
285.548
284.535
282.781
280.288
277.064
273.12
268.468
263.127
257.116
250.461
243.187
235.325
226.909
217.974
208.558
198.7
188.443
177.829
166.902
155.707
144.289
132.695
120.97
109.16
97.311
85.465
73.667
61.957
50.375
38.958
27.744
16.763
6.049
-4.371
-14.472
-24.228
-33.619
-42.627
-51.236
-59.432
-67.207
-74.551
-81.461
-87.932
-93.966
-99.565
-104.732
-109.474
-113.8
-117.72
-121.246
-124.391
-127.17
-129.599
-131.694
-133.475
-134.958
-136.162
-137.108
-137.812
-138.295
-138.574
-138.667
-138.592
-138.366
-138.005
-137.525
-136.94
-136.265
-135.514
-134.7
-133.833
-132.926
-131.987
-131.028
-130.055
-129.078
-128.103
-127.137
-126.186
-125.255
-124.35
-123.474
-122.632
-121.826
-121.061
-120.339
-119.662
-119.033
-118.454
-117.927
-117.455
-117.04
-116.683
-116.389
-116.158
-115.993
-115.897
-115.872
-115.919
-116.042
-116.242
-116.521
-116.881
-117.323
-117.849
-118.46
-119.158
-119.943
-120.814
-121.771
-122.815
-123.942
-125.153
-126.443
-127.811
-129.253
-130.766
-132.345
-133.986
-135.683
-137.43
-139.221
-141.05
-142.909
-144.791
-146.688
-148.593
-150.497
-152.394
-154.275
-156.133
-157.959
-159.748
-161.491
-163.182
-164.814
-166.381
-167.876
-169.295
-170.632
-171.884
-173.046
-174.115
-175.09
-175.966
-176.744
-177.422
-178
-178.479
-178.858
-179.14
-179.326
-179.42
-179.426
-179.346
-179.184
-178.945
-178.634
-178.254
-177.809
-177.303
-176.741
-176.124
-175.457
-174.744
-173.988
-173.191
-172.355
-171.482
-170.575
-169.635
-168.663
-167.657
-166.618
-165.547
-164.443
-163.307
-162.139
-160.937
-159.702
-158.433
-157.13
-155.793
-154.42
-153.009
-151.562
-150.078
-148.558
-147.004
-145.418
-143.807
-142.176
-140.535
-138.89
-137.252
-135.631
-134.039
-132.492
-131.003
-129.586
-128.253
-127.019
-125.898
-124.908
-124.065
-123.377
-122.856
-122.511
-122.353
-122.4
-122.659
-123.129
-123.805
-124.683
-125.765
-127.068
-128.603
-130.37
-132.37
-134.602
-137.066
-139.769
-142.701
-145.827
-149.104
-152.479
-155.918
-159.412
-162.962
-166.566
-170.198
-173.805
-177.329
-180.727
-183.952
-186.977
-189.762
-192.243
-194.478
-196.637
-198.99
-201.925
-205.771
-210.694
-216.777
-224.066
-232.373
-241.371
-250.532
-258.922
-265.575
-269.743
-270.983
-269.156
-264.568
-257.747
-249.378
-240.819
-233.993
-230.819
-232.677
-240.651
-255.143
-275.685
-301.922
-331.29
-358.034
-378.362
-389.798
-391.691
-387.793
-374.38
-340.966
-277.901
-175.672
-39.19
114.346
269.319
412.643
543.67
667.838
781.831
875.435
928.946
922.862
853.142
726.558
557.904
366.929
168.523
-23.144
-188.932
-312.799
-385.626
-407.023
-391.169
-357.553
-318.605
-281.337
-245.26
-205.301
-162.295
-119.808
-81.892
-53.847
-36.905
-29.161
-28.537
-31.921
-36.298
-39.91
-41.091
-38.513
-31.997
-21.828
-8.571
6.619
22.497
38.021
52.033
63.718
72.879
79.504
83.81
86.243
87.203
87.157
86.745
86.434
86.467
86.999
88.026
89.516
91.51
93.996
96.898
100.16
103.728
107.557
111.652
115.991
120.515
125.154
129.822
134.438
138.961
143.373
147.662
151.832
155.886
159.838
163.723
167.582
171.446
175.342
179.291
183.313
187.437
191.696
196.118
200.729
205.546
210.579
215.839
221.33
227.053
233.002
239.167
245.536
252.096
258.834
265.736
272.785
279.961
287.242
294.604
302.02
309.461
316.896
324.292
331.612
338.822
345.884
352.761
359.416
365.81
371.905
377.663
383.049
388.024
392.553
396.602
400.139
403.134
405.559
407.386
408.594
409.161
409.07
408.305
406.856
404.714
401.872
398.33
394.088
389.151
383.528
377.23
370.27
362.668
354.445
345.623
336.232
326.298
315.855
304.935
293.574
281.81
269.68
257.224
244.483
231.498
218.31
204.962
191.496
177.952
164.372
150.795
137.262
123.81
110.476
97.297
84.306
71.537
59.019
46.782
34.852
23.255
12.012
1.143
-9.333
-19.401
-29.049
-38.265
-47.04
-55.369
-63.247
-70.671
-77.641
-84.161
-90.233
-95.863
-101.058
-105.829
-110.185
-114.138
-117.701
-120.889
-123.717
-126.203
-128.362
-130.214
-131.778
-133.073
-134.121
-134.943
-135.56
-135.993
-136.265
-136.397
-136.413
-136.335
-136.183
-135.977
-135.737
-135.484
-135.237
-135.013
-134.832
-134.707
-134.657
-134.697
-134.842
-135.106
-135.5
-136.031
-136.71
-137.539
-138.53
-139.691
-141.027
-142.541
-144.236
-146.111
-148.168
-150.405
-152.814
-155.386
-158.108
-160.965
-163.948
-167.044
-170.247
-173.547
-176.915
-180.324
-183.743
-187.135
-190.49
-193.805
-197.049
-200.205
-203.246
-206.122
-208.867
-211.521
-213.967
-216.124
-217.896
-219.145
-219.987
-220.591
-220.876
-220.79
-220.534
-220.204
-220.059
-220.435
-220.987
-221.32
-221.434
-221.228
-220.456
-219.034
-216.538
-212.475
-207.282
-201.413
-194.962
-188.175
-181.198
-174.046
-167.125
-160.865
-154.97
-149.165
-143.365
-137.362
-131.182
-124.921
-118.399
-111.458
-104.25
-96.895
-89.486
-82.167
-74.914
-67.689
-60.558
-53.568
-46.724
-40.044
-33.528
-27.164
-20.993
-15.05
-9.354
-3.93
1.213
6.071
10.633
14.891
18.838
22.466
25.772
28.756
31.416
33.756
35.778
37.486
38.886
39.987
40.799
41.334
41.603
41.617
41.389
40.933
40.266
39.408
38.377
37.19
35.867
34.429
32.896
31.29
29.632
27.942
26.242
24.551
22.891
21.283
19.743
18.29
16.941
15.709
14.609
13.652
12.848
12.204
11.727
11.419
11.283
11.314
11.509
11.867
12.384
13.058
13.885
14.856
15.961
17.196
18.553
20.022
21.591
23.238
24.946
26.708
28.528
30.408
32.343
34.316
36.296
38.265
40.209
42.114
43.963
45.735
47.412
49.002
50.546
52.092
53.676
55.305
56.946
58.565
60.168
61.798
63.535
65.446
67.553
69.843
72.345
75.117
78.109
81.182
84.011
86.108
87.212
87.317
86.465
84.75
82.362
79.388
76.164
73.534
71.927
71.414
72.014
73.327
74.94
76.92
79.126
80.749
81.368
80.48
77.377
72.316
65.4
55.985
43.764
28.854
12.611
-1.368
-9.505
-10.271
-5.696
0.869
10.299
29.008
70.332
145.947
255.847
391.144
534.36
670.127
795.767
911.859
1017.388
1104.961
1155.104
1148.906
1079.67
950.516
774.435
570.942
355.769
145.476
-38.181
-178.839
-267.925
-306.485
-310.782
-300.038
-284.539
-268.133
-247.513
-216.664
-176.438
-131.573
-87.108
-48.561
-18.799
1.852
13.884
18.635
17.847
13.166
5.856
-2.775
-10.922
-16.942
-19.986
-19.861
-17.019
-12.272
-6.238
0.438
6.677
11.407
14.096
14.641
13.32
10.662
7.082
2.908
-1.388
-5.306
-8.545
-10.97
-12.595
-13.537
-13.846
-13.507
-12.519
-10.948
-8.912
-6.521
-3.865
-1.009
1.978
5.026
8.067
11.065
14.029
16.987
19.978
23.033
26.169
29.393
32.7
36.11
39.668
43.416
47.397
51.649
56.205
61.101
66.38
72.063
78.151
84.635
91.502
98.737
106.334
114.283
122.572
131.183
140.092
149.272
158.699
168.34
178.162
188.124
198.18
208.285
218.397
228.474
238.47
248.338
258.027
267.489
276.677
285.544
294.039
302.114
309.724
316.822
323.368
329.323
334.65
339.315
343.289
346.545
349.062
350.822
351.811
352.019
351.441
350.075
347.926
344.999
341.307
336.864
331.69
325.807
319.244
312.029
304.197
295.784
286.829
277.372
267.457
257.127
246.427
235.403
224.101
212.568
200.851
188.996
177.047
165.048
153.041
141.068
129.165
117.369
105.713
94.228
82.942
71.881
61.068
50.522
40.26
30.298
20.646
11.315
2.31
-6.363
-14.703
-22.711
-30.388
-37.737
-44.765
-51.479
-57.885
-63.994
-69.815
-75.358
-80.635
-85.656
-90.432
-94.976
-99.299
-103.41
-107.32
-111.039
-114.575
-117.938
-121.134
-124.17
-127.052
-129.784
-132.372
-134.819
-137.128
-139.3
-141.338
-143.243
-145.017
-146.658
-148.169
-149.55
-150.801
-151.923
-152.918
-153.785
-154.529
-155.15
-155.651
-156.037
-156.31
-156.475
-156.538
-156.505
-156.382
-156.176
-155.895
-155.548
-155.143
-154.69
-154.198
-153.676
-153.136
-152.586
-152.037
-151.499
-150.981
-150.493
-150.044
-149.643
-149.297
-149.014
-148.8
-148.661
-148.601
-148.624
-148.732
-148.926
-149.207
-149.574
-150.024
-150.555
-151.161
-151.839
-152.582
-153.382
-154.232
-155.122
-156.043
-156.986
-157.939
-158.893
-159.835
-160.755
-161.643
-162.486
-163.276
-164
-164.65
-165.215
-165.686
-166.054
-166.313
-166.454
-166.471
-166.36
-166.115
-165.735
-165.217
-164.561
-163.767
-162.836
-161.77
-160.575
-159.253
-157.81
-156.253
-154.591
-152.83
-150.98
-149.05
-147.053
-144.996
-142.893
-140.754
-138.589
-136.409
-134.227
-132.051
-129.893
-127.763
-125.671
-123.626
-121.639
-119.716
-117.868
-116.099
-114.417
-112.826
-111.33
-109.933
-108.635
-107.437
-106.338
-105.336
-104.429
-103.613
-102.882
-102.231
-101.651
-101.135
-100.673
-100.255
-99.87
-99.505
-99.148
-98.788
-98.413
-98.009
-97.565
-97.068
-96.506
-95.867
-95.14
-94.314
-93.378
-92.322
-91.137
-89.817
-88.354
-86.744
-84.984
-83.073
-81.015
-78.814
-76.478
-74.013
-71.43
-68.74
-65.956
-63.092
-60.156
-57.162
-54.12
-51.049
-47.969
-44.899
-41.858
-38.864
-35.937
-33.094
-30.358
-27.741
-25.244
-22.876
-20.647
-18.578
-16.705
-15.054
-13.643
-12.487
-11.596
-10.97
-10.611
-10.492
-10.564
-10.783
-11.106
-11.507
-11.984
-12.512
-13.052
-13.552
-13.931
-14.134
-14.132
-13.886
-13.377
-12.626
-11.672
-10.606
-9.575
-8.702
-8.094
-7.854
-8.049
-8.765
-10.11
-12.266
-15.476
-19.893
-25.567
-32.397
-40.055
-48.101
-55.986
-62.909
-67.932
-70.402
-69.92
-66.643
-61.643
-56.352
-52.451
-52.143
-56.065
-62.869
-71.683
-80.456
-90.361
-107.14
-130.648
-156.123
-169.941
-148.734
-79.38
38.402
190.916
351.569
501.138
632.135
747.316
854.249
951.257
1027.59
1065.204
1046.734
967.962
833.349
654.329
449.532
235.386
29.18
-147.313
-280.334
-365.888
-407.446
-419.929
-415.751
-397.054
-364.746
-319.158
-268.568
-230.202
-216.308
-230.797
-261.566
-287.3
-293.016
-269.38
-222.454
-168.131
-116.802
-77.906
-53.014
-35.579
-23.31
-14.908
-9.842
-10.76
-17.459
-27.114
-37.853
-47.813
-55.529
-60.777
-63.49
-63.522
-61.577
-58.97
-56.455
-54.442
-53.175
-52.46
-52.136
-52.13
-52.027
-51.229
-49.415
-46.445
-42.353
-37.383
-31.733
-25.579
-19.146
-12.647
-6.246
-0.033
5.973
11.805
17.487
23.033
28.438
33.681
38.766
43.699
48.501
53.214
57.889
62.6
67.418
72.401
77.6
83.045
88.751
94.728
100.971
107.467
114.212
121.204
128.44
135.919
143.633
151.565
159.697
168.004
176.456
185.021
193.666
202.356
211.056
219.733
228.352
236.881
245.285
253.526
261.563
269.356
276.861
284.037
290.84
297.228
303.159
308.595
313.498
317.835
321.574
324.684
327.141
328.921
330.003
330.372
330.014
328.921
327.086
324.508
321.19
317.137
312.361
306.876
300.698
293.851
286.36
278.252
269.561
260.32
250.566
240.339
229.68
218.632
207.24
195.55
183.611
171.469
159.174
146.774
134.317
121.848
109.415
97.062
84.832
72.766
60.904
49.281
37.933
26.892
16.188
5.847
-4.107
-13.652
-22.77
-31.446
-39.667
-47.423
-54.707
-61.515
-67.844
-73.696
-79.073
-83.98
-88.426
-92.419
-95.969
-99.091
-101.797
-104.103
-106.025
-107.581
-108.789
-109.668
-110.238
-110.516
-110.525
-110.281
-109.806
-109.118
-108.236
-107.177
-105.959
-104.599
-103.113
-101.517
-99.825
-98.051
-96.208
-94.308
-92.364
-90.384
-88.379
-86.359
-84.331
-82.303
-80.283
-78.278
-76.294
-74.337
-72.412
-70.525
-68.681
-66.884
-65.138
-63.448
-61.816
-60.247
-58.744
-57.31
-55.949
-54.662
-53.455
-52.328
-51.285
-50.328
-49.46
-48.683
-48
-47.411
-46.919
-46.526
-46.234
-46.043
-45.954
-45.968
-46.084
-46.303
-46.624
-47.044
-47.562
-48.175
-48.88
-49.673
-50.55
-51.507
-52.538
-53.637
-54.8
-56.019
-57.289
-58.602
-59.952
-61.331
-62.732
-64.149
-65.573
-66.997
-68.415
-69.819
-71.201
-72.554
-73.872
-75.147
-76.373
-77.543
-78.651
-79.691
-80.658
-81.547
-82.354
-83.074
-83.706
-84.245
-84.69
-85.039
-85.291
-85.445
-85.5
-85.457
-85.314
-85.074
-84.735
-84.298
-83.764
-83.134
-82.409
-81.59
-80.677
-79.673
-78.576
-77.39
-76.116
-74.754
-73.305
-71.773
-70.156
-68.459
-66.684
-64.831
-62.902
-60.901
-58.828
-56.687
-54.481
-52.212
-49.884
-47.5
-45.066
-42.587
-40.069
-37.519
-34.946
-32.361
-29.774
-27.198
-24.646
-22.132
-19.669
-17.273
-14.959
-12.74
-10.629
-8.641
-6.79
-5.092
-3.564
-2.222
-1.082
-0.158
0.536
0.985
1.179
1.115
0.79
0.199
-0.666
-1.82
-3.279
-5.044
-7.114
-9.487
-12.151
-15.088
-18.267
-21.634
-25.139
-28.738
-32.394
-36.091
-39.806
-43.502
-47.132
-50.635
-53.954
-57.065
-59.948
-62.565
-64.913
-67.024
-68.974
-70.906
-72.947
-75.159
-77.596
-80.306
-83.35
-86.844
-90.9
-95.589
-101.022
-107.328
-114.575
-122.765
-131.651
-140.682
-149.175
-156.417
-161.67
-164.233
-163.601
-159.624
-152.855
-144.531
-136.2
-129.415
-125.568
-125.957
-131.437
-141.883
-155.628
-169.696
-180.41
-183.523
-174.761
-149.962
-105.132
-38.969
46.136
146.84
258.284
377.309
503.277
631.433
754.257
858.037
925.266
944.408
907.212
815.56
678.366
501.645
298.26
82.907
-127.527
-307.519
-440.006
-519.332
-549.497
-544.995
-517.104
-471.968
-414.288
-350.74
-294.193
-255.264
-238.206
-238.149
-241.594
-239.95
-230.8
-216.741
-205.705
-201.008
-201.709
-205.883
-209.321
-209.644
-207.013
-201.752
-194.644
-186.522
-177.632
-168.284
-159.284
-151.48
-145.313
-140.937
-138.254
-136.916
-136.629
-137.13
-137.961
-138.633
-138.859
-138.491
-137.497
-135.96
-133.933
-131.446
-128.581
-125.433
-122.072
-118.553
-114.905
-111.149
-107.34
-103.548
-99.844
-96.277
-92.866
-89.612
-86.506
-83.532
-80.659
-77.844
-75.037
-72.197
-69.288
-66.277
-63.132
-59.816
-56.29
-52.518
-48.463
-44.095
-39.388
-34.321
-28.881
-23.06
-16.855
-10.268
-3.305
4.025
11.713
19.748
28.115
36.793
45.76
54.99
64.453
74.114
83.934
93.873
103.886
113.929
123.954
133.911
143.751
153.423
162.877
172.06
180.923
189.415
197.486
205.089
212.18
218.716
224.656
229.962
234.603
238.546
241.767
244.244
245.958
246.896
247.049
246.412
244.985
242.775
239.789
236.043
231.553
226.344
220.443
213.88
206.69
198.911
190.583
181.752
172.461
162.76
152.697
142.323
131.689
120.846
109.845
98.738
87.575
76.405
65.275
54.231
43.316
32.572
22.038
11.749
1.738
-7.965
-17.334
-26.345
-34.98
-43.222
-51.059
-58.481
-65.484
-72.064
-78.223
-83.964
-89.294
-94.223
-98.762
-102.926
-106.732
-110.197
-113.341
-116.184
-118.749
-121.059
-123.135
-125.001
-126.68
-128.195
-129.567
-130.819
-131.971
-133.043
-134.052
-135.015
-135.948
-136.864
-137.774
-138.688
-139.613
-140.556
-141.519
-142.506
-143.517
-144.55
-145.601
-146.666
-147.738
-148.81
-149.872
-150.913
-151.923
-152.89
-153.8
-154.641
-155.399
-156.061
-156.615
-157.046
-157.342
-157.491
-157.481
-157.301
-156.941
-156.392
-155.646
-154.696
-153.537
-152.166
-150.58
-148.779
-146.764
-144.536
-142.1
-139.461
-136.624
-133.6
-130.395
-127.023
-123.494
-119.821
-116.02
-112.106
-108.095
-104.003
-99.848
-95.647
-91.418
-87.178
-82.946
-78.74
-74.579
-70.478
-66.457
-62.532
-58.72
-55.036
-51.495
-48.109
-44.891
-41.852
-39.002
-36.347
-33.896
-31.654
-29.624
-27.81
-26.212
-24.829
-23.661
-22.702
-21.947
-21.389
-21.02
-20.829
-20.806
-20.937
-21.209
-21.609
-22.123
-22.734
-23.425
-24.179
-24.979
-25.805
-26.639
-27.462
-28.253
-28.995
-29.668
-30.255
-30.739
-31.104
-31.334
-31.414
-31.332
-31.076
-30.636
-30.001
-29.165
-28.122
-26.87
-25.408
-23.737
-21.86
-19.783
-17.517
-15.072
-12.463
-9.703
-6.811
-3.803
-0.7
2.477
5.71
8.979
12.263
15.539
18.782
21.963
25.059
28.043
30.891
33.582
36.088
38.39
40.477
42.339
43.962
45.331
46.413
47.182
47.626
47.733
47.497
46.921
46.012
44.792
43.308
41.606
39.727
37.708
35.56
33.301
30.973
28.626
26.328
24.151
22.126
20.288
18.684
17.316
16.157
15.135
14.114
12.985
11.678
10.107
8.19
5.829
2.908
-0.651
-4.965
-10.237
-16.607
-24.109
-32.556
-41.473
-50.307
-58.541
-65.511
-70.431
-72.629
-71.769
-68.391
-63.728
-59.054
-55.722
-55.103
-58.572
-67.512
-81.213
-95.883
-107.407
-112.738
-112.457
-109.723
-103.389
-85.501
-42.509
36.846
154.509
300.692
458.111
613.643
759.163
890.84
1003.379
1083.562
1116.853
1089.941
1000.249
855.98
667.238
451.886
227.438
11.697
-169.898
-301.139
-377.153
-402.323
-395.452
-374.719
-348.465
-319.937
-286.147
-242.998
-193.399
-142.989
-97.427
-62.61
-40.398
-29.428
-27.892
-33.282
-42.743
-54.048
-65.044
-73.164
-77.008
-76.326
-71.239
-62.575
-51.565
-39.245
-26.836
-15.85
-7.088
-0.785
3.034
4.819
5.088
4.274
3.006
1.942
1.447
1.692
2.72
4.41
6.702
9.562
12.887
16.579
20.566
24.792
29.239
33.882
38.657
43.476
48.239
52.878
57.362
61.679
65.829
69.823
73.676
77.418
81.096
84.743
88.385
92.048
95.751
99.522
103.399
107.418
111.614
116.018
120.653
125.537
130.687
136.107
141.802
147.769
154
160.488
167.227
174.206
181.416
188.84
196.459
204.253
212.197
220.263
228.418
236.627
244.853
253.057
261.198
269.235
277.125
284.824
292.29
299.48
306.351
312.862
318.971
324.638
329.826
334.499
338.623
342.166
345.101
347.403
349.051
350.027
350.319
349.916
348.813
347.009
344.505
341.308
337.43
332.884
327.688
321.865
315.441
308.446
300.913
292.879
284.381
275.461
266.161
256.525
246.598
236.425
226.053
215.528
204.896
194.204
183.498
172.82
162.216
151.725
141.387
131.241
121.32
111.657
102.282
93.222
84.5
76.137
68.153
60.56
53.373
46.598
40.242
34.308
28.795
23.7
19.019
14.742
10.86
7.362
4.233
1.458
-0.979
-3.095
-4.909
-6.44
-7.708
-8.734
-9.536
-10.137
-10.555
-10.811
-10.924
-10.912
-10.793
-10.584
-10.3
-9.957
-9.568
-9.145
-8.7
-8.242
-7.781
-7.322
-6.871
-6.435
-6.014
-5.613
-5.231
-4.868
-4.525
-4.199
-3.888
-3.591
-3.302
-3.02
-2.74
-2.458
-2.171
-1.875
-1.566
-1.24
-0.894
-0.525
-0.131
0.29
0.74
1.22
1.73
2.269
2.837
3.432
4.051
4.693
5.354
6.029
6.714
7.403
8.091
8.77
9.435
10.078
10.692
11.269
11.802
12.282
12.703
13.056
13.335
13.532
13.64
13.654
13.566
13.372
13.066
12.645
12.104
11.441
10.654
9.741
8.702
7.538
6.25
4.839
3.309
1.662
-0.095
-1.96
-3.925
-5.983
-8.127
-10.348
-12.639
-14.989
-17.388
-19.825
-22.29
-24.772
-27.26
-29.742
-32.207
-34.642
-37.036
-39.377
-41.653
-43.852
-45.961
-47.97
-49.867
-51.643
-53.288
-54.792
-56.147
-57.345
-58.378
-59.241
-59.927
-60.43
-60.746
-60.871
-60.803
-60.54
-60.083
-59.43
-58.583
-57.544
-56.316
-54.903
-53.31
-51.54
-49.601
-47.501
-45.247
-42.852
-40.325
-37.679
-34.928
-32.09
-29.18
-26.218
-23.223
-20.216
-17.22
-14.259
-11.353
-8.519
-5.776
-3.138
-0.625
1.747
3.964
6.015
7.886
9.56
11.022
12.258
13.267
14.061
14.648
15.037
15.22
15.182
14.914
14.416
13.685
12.713
11.494
10.024
8.333
6.487
4.542
2.544
0.503
-1.614
-3.81
-6.059
-8.317
-10.503
-12.556
-14.465
-16.176
-17.584
-18.699
-19.613
-20.554
-21.954
-24.175
-27.419
-31.823
-37.44
-44.045
-51.247
-58.56
-65.193
-70.454
-73.876
-75.099
-74.06
-71.226
-67.353
-63.177
-59.706
-57.788
-58.184
-61.914
-69.64
-81.414
-96.84
-115.122
-135.286
-156.69
-178.221
-197.63
-211.365
-214.607
-203.452
-176.312
-135.781
-86.414
-30.479
33.048
112.195
215.357
345.031
497.22
656.692
805.616
926.098
1002.647
1027.981
994.499
902.782
757.485
561.626
333.931
95.099
-129.883
-307.25
-425.529
-487.819
-507.656
-511.619
-507.707
-490.017
-452.099
-387.544
-310.641
-246.129
-210.83
-212.355
-235.802
-257.373
-261.884
-240.484
-201.67
-162.156
-131.411
-116.419
-115.202
-119.051
-123.994
-127.452
-128.765
-130.248
-132.328
-134.451
-136.415
-137.619
-137.88
-137.478
-136.811
-136.435
-136.665
-137.577
-139.132
-141.121
-143.399
-145.89
-148.323
-150.337
-151.696
-152.222
-151.894
-150.849
-149.205
-147.091
-144.664
-142.066
-139.442
-136.928
-134.588
-132.427
-130.435
-128.57
-126.817
-125.182
-123.657
-122.244
-120.928
-119.667
-118.417
-117.114
-115.694
-114.101
-112.274
-110.152
-107.698
-104.882
-101.683
-98.09
-94.083
-89.649
-84.791
-79.522
-73.854
-67.802
-61.385
-54.634
-47.595
-40.301
-32.768
-24.992
-16.962
-8.691
-0.214
8.414
17.134
25.91
34.732
43.594
52.47
61.333
70.164
78.976
87.798
96.615
105.346
113.85
121.986
129.659
136.806
143.396
149.385
154.706
159.276
163.028
165.923
167.914
168.93
168.855
167.56
164.987
161.179
156.255
150.334
143.489
135.77
127.216
117.891
107.879
97.253
86.064
74.346
62.159
49.597
36.805
23.934
11.079
-1.736
-14.543
-27.362
-40.18
-52.971
-65.709
-78.391
-91.01
-103.537
-115.915
-128.083
-140.003
-151.661
-163.074
-174.259
-185.206
-195.88
-206.227
-216.203
-225.781
-234.937
-243.644
-251.872
-259.597
-266.82
-273.556
-279.825
-285.64
-291.002
-295.912
-300.372
-304.394
-307.995
-311.192
-314.001
-316.44
-318.528
-320.288
-321.745
-322.92
-323.831
-324.49
-324.91
-325.11
-325.105
-324.913
-324.551
-324.032
-323.375
-322.596
-321.714
-320.743
-319.699
-318.593
-317.438
-316.246
-315.03
-313.798
-312.561
-311.327
-310.104
-308.9
-307.723
-306.579
-305.475
-304.416
-303.409
-302.458
-301.57
-300.747
-299.995
-299.315
-298.711
-298.184
-297.735
-297.364
-297.07
-296.854
-296.713
-296.648
-296.655
-296.733
-296.878
-297.088
-297.358
-297.685
-298.065
-298.493
-298.964
-299.474
-300.018
-300.594
-301.198
-301.825
-302.473
-303.14
-303.821
-304.514
-305.216
-305.923
-306.633
-307.343
-308.052
-308.76
-309.467
-310.175
-310.888
-311.609
-312.346
-313.104
-313.888
-314.704
-315.557
-316.451
-317.39
-318.377
-319.415
-320.509
-321.666
-322.895
-324.207
-325.613
-327.126
-328.753
-330.502
-332.378
-334.382
-336.51
-338.753
-341.104
-343.561
-346.123
-348.797
-351.584
-354.474
-357.454
-360.498
-363.569
-366.618
-369.587
-372.415
-375.052
-377.457
-379.609
-381.508
-383.153
-384.548
-385.678
-386.51
-387.013
-387.161
-386.934
-386.315
-385.323
-384.003
-382.423
-380.674
-378.823
-376.906
-374.921
-372.832
-370.576
-368.059
-365.211
-361.979
-358.317
-354.181
-349.527
-344.317
-338.466
-331.844
-324.282
-315.568
-305.528
-294.036
-281.016
-266.431
-250.312
-232.76
-213.878
-193.782
-172.592
-150.416
-127.379
-103.612
-79.307
-54.714
-30.145
-5.964
17.498
39.947
61.131
80.832
98.914
115.344
130.111
143.234
154.747
164.668
173.045
179.973
185.585
190.047
193.594
196.474
198.942
201.263
203.623
206.145
208.872
211.713
214.627
217.646
220.634
223.34
225.518
226.83
227.148
226.565
224.841
221.636
217.035
211.451
205.713
200.977
197.787
196.245
196.904
200.155
205.83
213.23
220.358
224.687
224.679
219.117
207.998
193.23
176.385
160.168
145.179
128.461
111.717
99.403
103.223
141.752
222.158
342.883
492.179
649.481
805.099
954.167
1092.861
1216.14
1308.695
1354.504
1340.852
1265.618
1135.802
959.47
753.849
535.142
322.949
145.409
15.504
-63.168
-97.389
-109.437
-111.807
-108.177
-98.361
-74.693
-36.11
11.478
61.506
106.429
141.883
166.999
182.164
188.846
188.775
184.132
177.488
170.888
166.296
165.264
168.22
175.116
185.476
198.099
211.698
225.106
236.918
246.103
252.325
255.494
255.908
254.213
250.957
246.77
242.415
238.36
234.852
232.058
229.942
228.455
227.636
227.446
227.852
228.92
230.651
233.023
235.996
239.411
243.113
246.977
250.856
254.652
258.31
261.78
265.058
268.182
271.164
274.027
276.782
279.392
281.854
284.191
286.436
288.663
290.94
293.315
295.846
298.59
301.583
304.856
308.417
312.248
316.34
320.692
325.298
330.166
335.296
340.677
346.296
352.136
358.175
364.393
370.76
377.241
383.802
390.409
397.029
403.635
410.193
416.666
423.018
429.209
435.202
440.955
446.429
451.58
456.367
460.75
464.692
468.159
471.117
473.533
475.38
476.631
477.265
477.261
476.603
475.278
473.277
470.593
467.225
463.175
458.448
453.053
447.003
440.314
433.008
425.108
416.64
407.634
398.12
388.135
377.713
366.894
355.716
344.222
332.453
320.454
308.268
295.94
283.514
271.032
258.538
246.073
233.678
221.392
209.25
197.289
185.542
174.039
162.809
151.877
141.267
131
121.092
111.559
102.412
93.661
85.312
77.37
69.835
62.706
55.982
49.655
43.719
38.163
32.977
28.148
23.662
19.503
15.653
12.097
8.815
5.79
3.001
0.431
-1.942
-4.135
-6.168
-8.059
-9.825
-11.485
-13.054
-14.548
-15.98
-17.364
-18.711
-20.032
-21.336
-22.631
-23.924
-25.22
-26.524
-27.839
-29.166
-30.507
-31.862
-33.23
-34.607
-35.993
-37.382
-38.771
-40.155
-41.529
-42.886
-44.222
-45.53
-46.804
-48.036
-49.221
-50.352
-51.423
-52.427
-53.36
-54.216
-54.99
-55.678
-56.278
-56.787
-57.203
-57.525
-57.753
-57.886
-57.928
-57.878
-57.74
-57.517
-57.213
-56.832
-56.381
-55.866
-55.292
-54.668
-54.001
-53.298
-52.569
-51.822
-51.065
-50.308
-49.562
-48.834
-48.136
-47.478
-46.868
-46.318
-45.836
-45.432
-45.114
-44.89
-44.767
-44.752
-44.852
-45.072
-45.417
-45.891
-46.498
-47.24
-48.117
-49.132
-50.283
-51.569
-52.987
-54.533
-56.201
-57.987
-59.884
-61.884
-63.98
-66.163
-68.422
-70.746
-73.124
-75.544
-77.99
-80.45
-82.909
-85.351
-87.762
-90.125
-92.426
-94.651
-96.782
-98.807
-100.71
-102.477
-104.095
-105.55
-106.831
-107.927
-108.83
-109.531
-110.026
-110.311
-110.386
-110.251
-109.91
-109.367
-108.629
-107.704
-106.603
-105.337
-103.919
-102.362
-100.68
-98.893
-97.019
-95.079
-93.094
-91.089
-89.087
-87.116
-85.201
-83.369
-81.642
-80.038
-78.578
-77.283
-76.177
-75.291
-74.65
-74.272
-74.176
-74.377
-74.881
-75.693
-76.792
-78.139
-79.702
-81.445
-83.34
-85.378
-87.536
-89.787
-92.103
-94.432
-96.74
-99.005
-101.197
-103.288
-105.266
-107.14
-108.986
-110.946
-113.151
-115.714
-118.709
-122.177
-126.208
-130.895
-136.321
-142.563
-149.619
-157.527
-166.462
-176.519
-187.624
-199.523
-211.609
-223.146
-233.558
-242.129
-247.961
-250.481
-249.511
-245.387
-239.196
-232.449
-226.596
-223.232
-224.352
-229.757
-236.683
-242.629
-244.215
-242.139
-242.153
-243.919
-241.926
-223.36
-168.581
-69.745
68.585
233.16
402.627
563.027
708.341
830.626
922.004
971.115
962.779
893.078
767.167
594.256
394.11
185.059
-16.343
-188.328
-317.863
-400.835
-439.501
-448.395
-442.736
-429.645
-412.479
-389.549
-357.437
-318.606
-277.789
-238.912
-206.162
-181.303
-163.915
-153.491
-148.748
-147.723
-148.885
-151.518
-154.95
-158.402
-161.164
-162.239
-161.181
-158.441
-154.528
-149.709
-144.293
-138.568
-132.982
-128.368
-125.164
-123.301
-122.599
-122.709
-123.29
-124.165
-125.051
-125.518
-125.33
-124.383
-122.65
-120.264
-117.327
-113.869
-109.965
-105.695
-101.116
-96.305
-91.327
-86.223
-81.062
-75.893
-70.741
-65.637
-60.588
-55.591
-50.639
-45.706
-40.753
-35.759
-30.706
-25.582
-20.38
-15.082
-9.666
-4.115
1.589
7.459
13.502
19.731
26.151
32.762
39.558
46.529
53.661
60.942
68.361
75.905
83.562
91.313
99.141
107.026
114.947
122.88
130.798
138.672
146.472
154.165
161.721
169.108
176.293
183.243
189.927
196.311
202.366
208.061
213.364
218.249
222.688
226.655
230.128
233.085
235.506
237.375
238.677
239.402
239.54
239.085
238.034
236.389
234.15
231.325
227.921
223.952
219.429
214.371
208.798
202.732
196.199
189.226
181.842
174.079
165.969
157.547
148.848
139.908
130.762
121.448
112.002
102.46
92.86
83.236
73.624
64.057
54.569
45.19
35.95
26.878
18.001
9.343
0.927
-7.226
-15.098
-22.67
-29.93
-36.862
-43.457
-49.705
-55.599
-61.135
-66.309
-71.12
-75.571
-79.662
-83.399
-86.787
-89.835
-92.549
-94.941
-97.02
-98.798
-100.288
-101.501
-102.452
-103.155
-103.622
-103.869
-103.91
-103.758
-103.429
-102.935
-102.29
-101.508
-100.602
-99.583
-98.466
-97.261
-95.981
-94.637
-93.24
-91.801
-90.33
-88.837
-87.331
-85.82
-84.312
-82.815
-81.335
-79.878
-78.451
-77.059
-75.706
-74.398
-73.137
-71.927
-70.771
-69.673
-68.634
-67.657
-66.743
-65.895
-65.115
-64.402
-63.761
-63.191
-62.693
-62.27
-61.92
-61.644
-61.442
-61.314
-61.259
-61.276
-61.363
-61.52
-61.744
-62.034
-62.388
-62.804
-63.28
-63.812
-64.4
-65.04
-65.73
-66.468
-67.251
-68.077
-68.943
-69.849
-70.791
-71.768
-72.776
-73.812
-74.875
-75.96
-77.062
-78.178
-79.302
-80.431
-81.561
-82.685
-83.801
-84.902
-85.983
-87.039
-88.065
-89.056
-90.005
-90.907
-91.756
-92.547
-93.275
-93.937
-94.526
-95.036
-95.463
-95.801
-96.047
-96.194
-96.236
-96.17
-95.991
-95.695
-95.283
-94.752
-94.103
-93.338
-92.46
-91.475
-90.392
-89.22
-87.968
-86.652
-85.283
-83.871
-82.428
-80.961
-79.483
-78.003
-76.531
-75.076
-73.646
-72.251
-70.906
-69.627
-68.423
-67.293
-66.229
-65.226
-64.288
-63.431
-62.679
-62.052
-61.559
-61.217
-61.05
-61.076
-61.306
-61.719
-62.252
-62.855
-63.498
-64.172
-64.917
-65.736
-66.581
-67.393
-68.075
-68.549
-68.83
-68.871
-68.553
-67.89
-66.963
-65.993
-65.496
-65.879
-67.235
-69.656
-73.13
-77.395
-82.313
-87.534
-92.169
-95.467
-97.078
-96.823
-94.998
-92.314
-89.091
-85.826
-83.667
-83.735
-87.037
-94.415
-105.972
-121.218
-140.017
-161.959
-185.779
-209.867
-231.936
-249.137
-258.735
-258.208
-244.759
-215.518
-168.258
-101.482
-14.619
89.558
204.805
325.133
443.929
558.126
671.281
782.203
884.144
963.997
997.51
967.134
868.434
706.738
503.726
284.367
69.241
-120.789
-271.745
-377.057
-435.98
-455.486
-448.597
-426.307
-394.093
-358.41
-320.577
-282.133
-250.159
-223.864
-203.315
-189.724
-179.043
-172.856
-172.642
-176.44
-183.767
-191.841
-197.375
-199.306
-197.213
-191.339
-182.485
-171.509
-159.329
-146.997
-135.754
-126.44
-119.319
-114.459
-111.639
-110.453
-110.543
-111.396
-112.338
-112.897
-112.822
-111.976
-110.388
-108.099
-105.092
-101.416
-97.168
-92.423
-87.251
-81.697
-75.773
-69.518
-63.005
-56.322
-49.565
-42.823
-36.146
-29.563
-23.093
-16.742
-10.508
-4.38
1.669
7.671
13.652
19.63
25.623
31.648
37.727
43.887
50.154
56.55
63.089
69.779
76.628
83.638
90.806
98.129
105.594
113.189
120.901
128.718
136.626
144.609
152.649
160.723
168.81
176.886
184.923
192.894
200.766
208.508
216.085
223.465
230.611
237.488
244.06
250.29
256.144
261.587
266.584
271.103
275.114
278.586
281.493
283.81
285.514
286.586
287.008
286.768
285.855
284.262
281.987
279.029
275.391
271.081
266.108
260.485
254.23
247.362
239.903
231.879
223.318
214.252
204.715
194.743
184.373
173.646
162.602
151.286
139.74
128.007
116.133
104.163
92.139
80.107
68.108
56.185
44.378
32.726
21.265
10.031
-0.945
-11.632
-22.003
-32.033
-41.7
-50.983
-59.866
-68.334
-76.376
-83.982
-91.145
-97.86
-104.126
-109.943
-115.314
-120.243
-124.738
-128.808
-132.463
-135.716
-138.581
-141.074
-143.211
-145.01
-146.49
-147.67
-148.568
-149.206
-149.603
-149.778
-149.751
-149.54
-149.163
-148.639
-147.982
-147.21
-146.335
-145.372
-144.334
-143.231
-142.075
-140.875
-139.64
-138.378
-137.096
-135.801
-134.497
-133.19
-131.884
-130.582
-129.287
-128
-126.725
-125.461
-124.21
-122.973
-121.75
-120.541
-119.348
-118.171
-117.011
-115.87
-114.749
-113.65
-112.577
-111.532
-110.52
-109.547
-108.616
-107.735
-106.909
-106.147
-105.456
-104.843
-104.317
-103.884
-103.554
-103.333
-103.23
-103.252
-103.405
-103.697
-104.134
-104.721
-105.463
-106.365
-107.428
-108.655
-110.048
-111.604
-113.324
-115.202
-117.236
-119.418
-121.742
-124.2
-126.781
-129.474
-132.264
-135.137
-138.077
-141.065
-144.083
-147.111
-150.126
-153.107
-156.032
-158.88
-161.626
-164.248
-166.722
-169.027
-171.141
-173.042
-174.71
-176.125
-177.27
-178.13
-178.689
-178.937
-178.864
-178.463
-177.732
-176.669
-175.278
-173.562
-171.528
-169.184
-166.541
-163.615
-160.419
-156.969
-153.284
-149.384
-145.295
-141.044
-136.658
-132.165
-127.592
-122.965
-118.314
-113.668
-109.048
-104.476
-99.979
-95.582
-91.322
-87.235
-83.346
-79.676
-76.245
-73.06
-70.124
-67.432
-64.955
-62.666
-60.546
-58.569
-56.734
-55.027
-53.414
-51.866
-50.336
-48.779
-47.191
-45.537
-43.772
-41.903
-39.957
-38.012
-36.233
-34.687
-33.39
-32.511
-32.177
-32.558
-33.9
-36.168
-39.28
-43.459
-48.827
-55.203
-62.377
-69.667
-76.175
-81.691
-85.931
-88.147
-87.887
-85.028
-79.839
-73.819
-68.724
-65.245
-64.255
-67.049
-74.502
-87.203
-103.305
-117.786
-126.009
-125.093
-115.758
-100.839
-78.843
-43.951
13.694
103.471
225.69
373.952
536.605
699.439
851.765
980.483
1070.45
1108.938
1084.579
997.894
859.527
680.838
477.882
264.495
53.647
-132.981
-276.701
-367.956
-406.119
-406.279
-388.699
-364.799
-339.829
-312.242
-276.48
-233.203
-186.801
-141.778
-103.494
-74.77
-55.623
-45.055
-41.196
-42.005
-45.856
-51.628
-58.199
-63.849
-66.976
-66.842
-63.36
-57.037
-48.619
-38.584
-27.456
-16.241
-6.069
2.404
8.96
13.773
17.267
19.778
21.613
23.223
25.121
27.624
30.866
34.839
39.411
44.486
50.008
55.896
62.054
68.414
74.924
81.539
88.226
94.924
101.552
108.056
114.395
120.549
126.518
132.31
137.937
143.431
148.83
154.159
159.439
164.687
169.919
175.157
180.429
185.759
191.174
196.697
202.346
208.137
214.082
220.182
226.436
232.837
239.377
246.046
252.836
259.736
266.732
273.81
280.949
288.131
295.332
302.526
309.683
316.771
323.757
330.606
337.284
343.753
349.978
355.92
361.544
366.811
371.686
376.132
380.116
383.604
386.564
388.967
390.786
391.997
392.576
392.506
391.772
390.36
388.264
385.478
382.001
377.836
372.989
367.469
361.292
354.473
347.034
338.998
330.394
321.252
311.605
301.49
290.944
280.009
268.727
257.14
245.294
233.233
221.004
208.651
196.221
183.759
171.309
158.916
146.622
134.467
122.491
110.732
99.223
87.998
77.087
66.516
56.311
46.493
37.081
28.09
19.534
11.423
3.764
-3.439
-10.184
-16.472
-22.307
-27.695
-32.644
-37.164
-41.269
-44.973
-48.289
-51.236
-53.831
-56.094
-58.043
-59.7
-61.084
-62.218
-63.122
-63.818
-64.326
-64.668
-64.863
-64.931
-64.891
-64.76
-64.555
-64.292
-63.986
-63.65
-63.298
-62.941
-62.589
-62.251
-61.936
-61.651
-61.4
-61.19
-61.023
-60.902
-60.83
-60.808
-60.837
-60.916
-61.045
-61.223
-61.449
-61.721
-62.036
-62.392
-62.786
-63.216
-63.677
-64.166
-64.679
-65.214
-65.766
-66.332
-66.909
-67.491
-68.077
-68.661
-69.242
-69.816
-70.379
-70.927
-71.457
-71.968
-72.454
-72.913
-73.341
-73.734
-74.089
-74.402
-74.67
-74.888
-75.052
-75.159
-75.203
-75.182
-75.091
-74.925
-74.68
-74.353
-73.939
-73.436
-72.841
-72.15
-71.361
-70.472
-69.484
-68.395
-67.206
-65.918
-64.53
-63.047
-61.472
-59.807
-58.058
-56.229
-54.33
-52.37
-50.364
-48.322
-46.259
-44.188
-42.127
-40.093
-38.099
-36.157
-34.278
-32.476
-30.764
-29.162
-27.686
-26.349
-25.166
-24.148
-23.311
-22.668
-22.225
-21.978
-21.929
-22.08
-22.444
-23.052
-23.92
-25.06
-26.482
-28.186
-30.168
-32.426
-34.93
-37.631
-40.484
-43.442
-46.471
-49.557
-52.663
-55.739
-58.728
-61.541
-64.116
-66.412
-68.377
-69.989
-71.27
-72.255
-73.019
-73.68
-74.331
-75.089
-76.112
-77.517
-79.441
-82.002
-85.349
-89.761
-95.445
-102.403
-110.394
-118.912
-127.379
-135.32
-142.161
-147.095
-149.546
-149.41
-147.415
-145.076
-143.776
-144.912
-149.964
-159.92
-175.554
-195.549
-215.167
-230.792
-240.079
-241.835
-238.255
-225.016
-191.443
-129.539
-32.994
93.711
234.759
377.972
515.785
644.161
761.217
858.494
919.262
926.866
873.9
759.976
593.391
393.467
177.599
-31.54
-205.793
-332.336
-406.733
-437.325
-448.05
-452.763
-456.344
-456.982
-443.837
-413.915
-371.524
-322.288
-274.495
-232.617
-197.667
-171.26
-153.669
-144.158
-142.009
-145.664
-153.158
-163.13
-173.89
-182.998
-188.966
-191.283
-189.865
-185.383
-178.728
-170.459
-161.505
-153.282
-146.59
-141.716
-138.708
-137.091
-136.344
-136.181
-136.16
-135.724
-134.599
-132.647
-129.822
-126.289
-122.181
-117.55
-112.499
-107.121
-101.463
-95.594
-89.573
-83.438
-77.268
-71.126
-65.045
-59.057
-53.171
-47.381
-41.682
-36.054
-30.46
-24.875
-19.284
-13.676
-8.049
-2.389
3.324
9.113
15.002
21.008
27.146
33.43
39.869
46.468
53.223
60.126
67.164
74.326
81.603
88.987
96.464
104.021
111.639
119.302
126.987
134.672
142.327
149.923
157.427
164.805
172.025
179.052
185.851
192.386
198.621
204.52
210.049
215.172
219.853
224.06
227.76
230.922
233.517
235.519
236.905
237.653
237.746
237.171
235.915
233.972
231.338
228.012
223.997
219.301
213.934
207.911
201.248
193.968
186.095
177.66
168.693
159.229
149.306
138.963
128.243
117.188
105.843
94.256
82.474
70.544
58.516
46.439
34.362
22.333
10.4
-1.391
-12.996
-24.372
-35.478
-46.276
-56.73
-66.808
-76.477
-85.711
-94.485
-102.777
-110.568
-117.842
-124.588
-130.796
-136.459
-141.574
-146.142
-150.164
-153.646
-156.595
-159.023
-160.94
-162.362
-163.305
-163.788
-163.831
-163.456
-162.687
-161.546
-160.061
-158.257
-156.16
-153.798
-151.196
-148.38
-145.378
-142.215
-138.916
-135.505
-132.006
-128.443
-124.837
-121.211
-117.584
-113.976
-110.404
-106.886
-103.438
-100.073
-96.807
-93.651
-90.617
-87.716
-84.958
-82.351
-79.904
-77.622
-75.511
-73.575
-71.817
-70.24
-68.844
-67.63
-66.598
-65.745
-65.072
-64.575
-64.252
-64.099
-64.113
-64.288
-64.619
-65.099
-65.721
-66.478
-67.36
-68.36
-69.467
-70.674
-71.969
-73.341
-74.778
-76.268
-77.799
-79.357
-80.928
-82.497
-84.049
-85.57
-87.047
-88.467
-89.814
-91.075
-92.237
-93.288
-94.215
-95.008
-95.655
-96.145
-96.472
-96.626
-96.603
-96.399
-96.01
-95.434
-94.672
-93.727
-92.606
-91.317
-89.872
-88.282
-86.56
-84.72
-82.774
-80.736
-78.619
-76.438
-74.206
-71.942
-69.662
-67.388
-65.144
-62.948
-60.819
-58.765
-56.784
-54.875
-53.047
-51.31
-49.69
-48.21
-46.883
-45.73
-44.774
-44.028
-43.501
-43.174
-42.991
-42.911
-42.908
-42.981
-43.175
-43.501
-43.92
-44.374
-44.771
-45.041
-45.189
-45.165
-44.853
-44.249
-43.422
-42.614
-42.297
-42.722
-43.868
-45.695
-48.1
-50.934
-54.112
-57.24
-59.593
-60.919
-61.377
-61.278
-61.134
-61.212
-61.466
-62.181
-63.885
-66.61
-70.113
-74.065
-78.164
-82.776
-88.725
-96.443
-106.061
-118.012
-132.372
-148.506
-165.2
-178.579
-183.804
-178.166
-157.978
-122.056
-71.474
-2.886
84.433
190.529
318.006
462.641
616.708
770.281
906.503
1006.942
1059.458
1057.252
998.188
890.41
739.438
547.341
328.385
97.603
-121.955
-297.471
-415.364
-473.564
-479.971
-457.846
-420.686
-376.487
-335.893
-301.64
-277.561
-265.352
-255.984
-242.089
-220.344
-191.61
-164.02
-143.766
-131.84
-126.599
-124.494
-123.762
-124.352
-125.914
-127.85
-128.958
-128.485
-126.643
-123.585
-119.331
-114.006
-107.846
-101.511
-95.972
-91.683
-88.576
-86.422
-84.867
-83.666
-82.679
-81.612
-80.056
-77.764
-74.654
-70.778
-66.308
-61.355
-55.965
-50.203
-44.15
-37.894
-31.529
-25.135
-18.768
-12.465
-6.253
-0.152
5.825
11.675
17.408
23.058
28.672
34.279
39.9
45.548
51.232
56.971
62.792
68.717
74.764
80.948
87.279
93.767
100.424
107.251
114.245
121.396
128.689
136.111
143.653
151.301
159.041
166.856
174.724
182.626
190.539
198.437
206.291
214.07
221.739
229.265
236.614
243.752
250.642
257.249
263.538
269.475
275.027
280.159
284.841
289.041
292.731
295.885
298.478
300.488
301.895
302.682
302.836
302.346
301.206
299.411
296.961
293.859
290.112
285.728
280.722
275.11
268.91
262.146
254.843
247.031
238.739
230.003
220.856
211.338
201.486
191.341
180.945
170.34
159.566
148.668
137.686
126.663
115.641
104.659
93.758
82.974
72.345
61.905
51.687
41.721
32.035
22.656
13.606
4.906
-3.427
-11.375
-18.928
-26.075
-32.808
-39.121
-45.013
-50.483
-55.533
-60.167
-64.391
-68.213
-71.642
-74.689
-77.368
-79.691
-81.674
-83.332
-84.68
-85.738
-86.52
-87.047
-87.334
-87.401
-87.265
-86.944
-86.454
-85.813
-85.037
-84.14
-83.137
-82.043
-80.869
-79.627
-78.329
-76.985
-75.601
-74.188
-72.752
-71.298
-69.833
-68.36
-66.883
-65.406
-63.931
-62.46
-60.995
-59.536
-58.084
-56.641
-55.205
-53.776
-52.354
-50.937
-49.524
-48.113
-46.704
-45.295
-43.885
-42.47
-41.051
-39.626
-38.193
-36.751
-35.299
-33.835
-32.36
-30.872
-29.373
-27.863
-26.342
-24.812
-23.275
-21.732
-20.185
-18.636
-17.086
-15.537
-13.993
-12.458
-10.935
-9.427
-7.941
-6.484
-5.065
-3.694
-2.377
-1.124
0.055
1.148
2.141
3.022
3.784
4.419
4.917
5.267
5.456
5.478
5.332
5.014
4.525
3.857
3.001
1.958
0.74
-0.642
-2.177
-3.864
-5.716
-7.734
-9.909
-12.233
-14.697
-17.296
-20.033
-22.886
-25.812
-28.76
-31.672
-34.51
-37.267
-39.927
-42.483
-44.912
-47.142
-49.124
-50.824
-52.19
-53.214
-53.891
-54.16
-54.087
-53.876
-53.774
-54.209
-55.573
-57.948
-61.392
-65.953
-71.416
-77.54
-83.881
-89.385
-93.019
-94.315
-92.968
-89.032
-83.074
-75.459
-66.786
-58.675
-53.04
-51.309
-54.722
-63.672
-77.339
-95.342
-117.349
-141.325
-164.345
-182.304
-189.224
-181.862
-159.581
-122.722
-74.285
-13.476
63.054
157.603
273.541
407.915
553.381
703.156
845.797
968.636
1058.906
1098.481
1072.899
978.364
817.43
606.312
372.23
139.958
-63.388
-217.236
-318.735
-372.373
-392.602
-398.234
-396.561
-389.007
-372.943
-343.101
-301.19
-253.059
-204.873
-162.934
-130.437
-107.97
-94.986
-89.705
-90.276
-94.888
-101.645
-109.049
-115.348
-118.838
-118.841
-115.401
-109.005
-100.544
-90.879
-80.726
-71.168
-63.4
-58.007
-55.104
-54.408
-55.348
-57.42
-60.204
-63.201
-65.859
-67.828
-68.937
-69.157
-68.595
-67.319
-65.337
-62.632
-59.2
-55.062
-50.292
-45.026
-39.378
-33.459
-27.394
-21.273
-15.183
-9.193
-3.325
2.438
8.12
13.746
19.329
24.844
30.259
35.568
40.791
45.975
51.169
56.405
61.714
67.132
72.693
78.426
84.334
90.399
96.597
102.91
109.327
115.843
122.455
129.148
135.906
142.707
149.531
156.358
163.162
169.914
176.576
183.118
189.509
195.724
201.737
207.517
213.033
218.254
223.15
227.691
231.848
235.587
238.878
241.694
244.008
245.798
247.042
247.722
247.821
247.327
246.229
244.522
242.201
239.267
235.72
231.567
226.817
221.483
215.578
209.123
202.136
194.643
186.671
178.25
169.411
160.189
150.619
140.739
130.589
120.208
109.638
98.921
88.098
77.214
66.311
55.432
44.618
33.91
23.347
12.966
2.804
-7.107
-16.735
-26.052
-35.03
-43.647
-51.881
-59.713
-67.129
-74.114
-80.661
-86.76
-92.408
-97.603
-102.346
-106.639
-110.489
-113.903
-116.891
-119.466
-121.642
-123.434
-124.862
-125.943
-126.699
-127.151
-127.323
-127.237
-126.917
-126.388
-125.674
-124.799
-123.787
-122.66
-121.442
-120.155
-118.818
-117.452
-116.075
-114.704
-113.356
-112.045
-110.784
-109.587
-108.464
-107.424
-106.477
-105.63
-104.888
-104.258
-103.744
-103.347
-103.07
-102.914
-102.879
-102.964
-103.168
-103.486
-103.916
-104.453
-105.093
-105.831
-106.661
-107.577
-108.572
-109.641
-110.778
-111.978
-113.235
-114.544
-115.899
-117.297
-118.732
-120.2
-121.697
-123.217
-124.756
-126.31
-127.876
-129.448
-131.023
-132.595
-134.159
-135.712
-137.247
-138.759
-140.242
-141.689
-143.096
-144.455
-145.763
-147.014
-148.201
-149.321
-150.369
-151.341
-152.234
-153.043
-153.763
-154.391
-154.923
-155.357
-155.689
-155.916
-156.037
-156.052
-155.964
-155.777
-155.495
-155.121
-154.661
-154.122
-153.511
-152.835
-152.095
-151.298
-150.448
-149.556
-148.634
-147.694
-146.744
-145.794
-144.853
-143.933
-143.044
-142.188
-141.361
-140.562
-139.796
-139.079
-138.441
-137.899
-137.463
-137.145
-136.952
-136.889
-136.958
-137.139
-137.387
-137.667
-137.945
-138.202
-138.434
-138.613
-138.698
-138.64
-138.372
-137.843
-137.034
-135.913
-134.449
-132.659
-130.572
-128.254
-125.846
-123.467
-121.232
-119.291
-117.778
-116.821
-116.59
-117.279
-119.04
-121.958
-125.969
-130.787
-136.018
-141.239
-145.973
-149.655
-151.779
-152.04
-150.553
-148.132
-146.016
-145.382
-147.232
-152.555
-162.155
-176.419
-194.865
-214.244
-229.144
-234.747
-227.674
-208.937
-182.129
-147.901
-103.122
-38.318
56.162
183.482
339.351
506.714
666.16
800.547
893.413
939.826
935.86
877.233
767.829
608.451
407.56
186.183
-34.471
-227.046
-369.594
-459.901
-506.045
-524.886
-533.855
-534.383
-519.038
-482.584
-425.336
-361.342
-310.058
-280.665
-271.244
-269.796
-262.823
-245.359
-220.227
-194.702
-174.394
-160.561
-151.996
-146.157
-141.368
-137.365
-133.825
-130.269
-126.455
-122.031
-116.65
-110.288
-103.144
-95.437
-87.667
-80.567
-74.398
-69.129
-64.702
-60.879
-57.466
-54.362
-51.289
-47.854
-43.88
-39.317
-34.169
-28.544
-22.461
-15.931
-9.092
-2.095
4.928
11.856
18.618
25.19
31.527
37.603
43.43
49.014
54.388
59.591
64.641
69.553
74.326
78.979
83.561
88.12
92.702
97.347
102.087
106.957
111.999
117.237
122.676
128.321
134.167
140.211
146.459
152.91
159.563
166.412
173.444
180.644
187.997
195.484
203.082
210.763
218.494
226.243
233.981
241.677
249.296
256.803
264.159
271.327
278.271
284.951
291.329
297.364
303.017
308.252
313.034
317.33
321.109
324.34
326.998
329.058
330.5
331.307
331.463
330.958
329.784
327.937
325.418
322.229
318.38
313.881
308.747
302.996
296.653
289.742
282.291
274.333
265.902
257.034
247.767
238.141
228.197
217.979
207.529
196.892
186.112
175.235
164.302
153.359
142.447
131.608
120.88
110.303
99.91
89.737
79.815
70.173
60.838
51.834
43.181
34.898
27
19.499
12.405
5.724
-0.54
-6.386
-11.817
-16.836
-21.449
-25.666
-29.497
-32.955
-36.054
-38.811
-41.241
-43.365
-45.2
-46.767
-48.086
-49.177
-50.062
-50.762
-51.296
-51.685
-51.948
-52.105
-52.173
-52.171
-52.113
-52.016
-51.893
-51.758
-51.621
-51.493
-51.384
-51.3
-51.249
-51.235
-51.262
-51.334
-51.451
-51.614
-51.824
-52.077
-52.373
-52.707
-53.077
-53.478
-53.906
-54.354
-54.819
-55.294
-55.774
-56.253
-56.727
-57.189
-57.635
-58.06
-58.459
-58.829
-59.164
-59.463
-59.722
-59.938
-60.11
-60.236
-60.316
-60.347
-60.33
-60.265
-60.153
-59.994
-59.79
-59.542
-59.253
-58.924
-58.56
-58.162
-57.734
-57.279
-56.801
-56.303
-55.788
-55.259
-54.72
-54.174
-53.622
-53.067
-52.512
-51.958
-51.407
-50.859
-50.316
-49.777
-49.242
-48.711
-48.181
-47.652
-47.12
-46.585
-46.044
-45.495
-44.933
-44.357
-43.763
-43.145
-42.501
-41.826
-41.115
-40.362
-39.562
-38.711
-37.803
-36.834
-35.799
-34.692
-33.509
-32.247
-30.903
-29.473
-27.954
-26.346
-24.647
-22.859
-20.983
-19.023
-16.982
-14.864
-12.679
-10.437
-8.147
-5.821
-3.47
-1.107
1.254
3.599
5.917
8.198
10.431
12.603
14.698
16.7
18.596
20.369
22.008
23.495
24.815
25.957
26.922
27.705
28.304
28.708
28.892
28.838
28.54
27.989
27.182
26.123
24.821
23.305
21.63
19.843
17.988
16.095
14.174
12.254
10.379
8.593
6.958
5.523
4.314
3.367
2.7
2.261
1.957
1.662
1.226
0.544
-0.469
-1.867
-3.628
-5.695
-7.996
-10.539
-13.499
-17.091
-21.456
-26.823
-33.499
-41.465
-50.447
-59.773
-67.96
-74.909
-82.201
-90.106
-98.715
-104.06
-97.267
-75.697
-41.302
-3.08
19.977
17.871
-11.676
-66.015
-128.646
-184.452
-220.074
-216.514
-164.55
-65.178
73.541
230.362
385.902
533.741
672.56
805.229
927.95
1022.914
1070.642
1054.89
972.655
834.198
651.775
443.282
225.132
14.289
-165.065
-297.674
-377.268
-407.071
-404.466
-383.918
-355.491
-327.432
-300.611
-277.756
-260.338
-243.951
-226.153
-203.614
-176.074
-149.7
-128.345
-113.877
-106.029
-101.423
-98.641
-97.761
-98.419
-99.985
-101.133
-100.708
-98.543
-94.927
-90.013
-83.857
-76.633
-69.019
-62.112
-56.609
-52.69
-50.215
-48.821
-48.21
-48.195
-48.43
-48.434
-47.917
-46.736
-44.875
-42.489
-39.692
-36.529
-33.082
-29.429
-25.627
-21.746
-17.845
-13.964
-10.17
-6.506
-2.995
0.341
3.504
6.509
9.375
12.149
14.883
17.617
20.381
23.2
26.092
29.087
32.22
35.52
39.015
42.729
46.682
50.894
55.38
60.145
65.188
70.503
76.078
81.904
87.97
94.266
100.775
107.482
114.364
121.4
128.565
135.831
143.166
150.533
157.897
165.22
172.463
179.589
186.555
193.324
199.854
206.107
212.045
217.63
222.825
227.595
231.909
235.734
239.044
241.812
244.016
245.637
246.659
247.07
246.859
246.023
244.558
242.466
239.753
236.426
232.498
227.983
222.9
217.269
211.116
204.467
197.351
189.801
181.849
173.532
164.885
155.946
146.753
137.346
127.763
118.043
108.225
98.347
88.447
78.562
68.726
58.973
49.336
39.845
30.528
21.411
12.519
3.873
-4.507
-12.605
-20.405
-27.896
-35.066
-41.908
-48.417
-54.588
-60.42
-65.914
-71.07
-75.894
-80.39
-84.565
-88.426
-91.984
-95.248
-98.228
-100.938
-103.388
-105.593
-107.564
-109.317
-110.863
-112.217
-113.393
-114.403
-115.26
-115.977
-116.566
-117.038
-117.403
-117.673
-117.856
-117.961
-117.997
-117.971
-117.89
-117.76
-117.587
-117.377
-117.135
-116.864
-116.57
-116.255
-115.923
-115.577
-115.22
-114.855
-114.483
-114.107
-113.729
-113.351
-112.974
-112.6
-112.23
-111.866
-111.51
-111.162
-110.825
-110.5
-110.188
-109.892
-109.612
-109.352
-109.113
-108.896
-108.704
-108.539
-108.401
-108.294
-108.218
-108.174
-108.164
-108.188
-108.247
-108.341
-108.469
-108.633
-108.831
-109.064
-109.329
-109.627
-109.956
-110.316
-110.704
-111.118
-111.558
-112.022
-112.507
-113.012
-113.535
-114.073
-114.624
-115.187
-115.758
-116.336
-116.917
-117.499
-118.08
-118.656
-119.225
-119.786
-120.335
-120.87
-121.389
-121.891
-122.374
-122.835
-123.272
-123.684
-124.067
-124.42
-124.739
-125.023
-125.268
-125.471
-125.629
-125.74
-125.799
-125.805
-125.751
-125.635
-125.451
-125.198
-124.868
-124.457
-123.962
-123.376
-122.696
-121.918
-121.037
-120.049
-118.949
-117.735
-116.403
-114.95
-113.373
-111.668
-109.836
-107.875
-105.787
-103.573
-101.238
-98.786
-96.224
-93.564
-90.816
-87.992
-85.103
-82.161
-79.18
-76.176
-73.164
-70.162
-67.185
-64.251
-61.379
-58.593
-55.911
-53.353
-50.935
-48.666
-46.564
-44.642
-42.908
-41.378
-40.06
-38.966
-38.115
-37.522
-37.192
-37.131
-37.338
-37.799
-38.504
-39.43
-40.539
-41.803
-43.192
-44.677
-46.243
-47.854
-49.469
-51.047
-52.549
-53.962
-55.281
-56.479
-57.515
-58.362
-59.04
-59.658
-60.324
-61.062
-61.948
-63.102
-64.778
-67.43
-71.331
-76.468
-82.824
-90.385
-98.967
-108.343
-117.793
-125.888
-131.589
-134.384
-133.93
-130.239
-123.507
-113.981
-102.963
-93.015
-86.342
-84.554
-88.714
-99.002
-115.378
-137.396
-162.798
-187.472
-206.893
-216.298
-211.176
-187.837
-142.532
-73.302
17.948
127.005
248
376.792
513.02
655.355
799.104
930.911
1029.976
1077.073
1057.639
971.516
830.067
646.413
439.63
226.367
22.244
-150.477
-277.332
-353.794
-383.805
-384.765
-374.007
-359.34
-343.188
-322.345
-292.613
-255.887
-216.73
-179.438
-148.154
-124.764
-109.182
-100.505
-97.192
-97.526
-100.045
-103.906
-108.368
-112.143
-113.992
-113.329
-110.1
-104.793
-98.108
-90.448
-82.2
-74.142
-67.161
-61.793
-58.203
-56.217
-55.443
-55.535
-56.182
-56.973
-57.447
-57.309
-56.437
-54.813
-52.528
-49.673
-46.306
-42.509
-38.38
-33.986
-29.375
-24.601
-19.703
-14.746
-9.816
-4.965
-0.226
4.379
8.856
13.209
17.453
21.622
25.759
29.893
34.049
38.248
42.506
46.849
51.308
55.91
60.681
65.643
70.815
76.212
81.845
87.717
93.825
100.163
106.721
113.489
120.46
127.62
134.957
142.455
150.095
157.855
165.713
173.642
181.611
189.59
197.544
205.439
213.242
220.915
228.422
235.725
242.789
249.576
256.05
262.175
267.914
273.236
278.106
282.496
286.378
289.726
292.517
294.731
296.352
297.366
297.764
297.538
296.685
295.205
293.1
290.379
287.05
283.127
278.625
273.565
267.967
261.857
255.261
248.209
240.731
232.859
224.629
216.076
207.236
198.146
188.846
179.372
169.765
160.062
150.302
140.522
130.757
121.044
111.416
101.905
92.541
83.353
74.366
65.606
57.095
48.852
40.894
33.238
25.896
18.879
12.197
5.856
-0.139
-5.783
-11.077
-16.018
-20.608
-24.851
-28.751
-32.313
-35.545
-38.454
-41.05
-43.344
-45.347
-47.071
-48.529
-49.734
-50.699
-51.439
-51.968
-52.299
-52.446
-52.424
-52.245
-51.922
-51.469
-50.898
-50.22
-49.447
-48.59
-47.659
-46.663
-45.613
-44.518
-43.387
-42.23
-41.053
-39.867
-38.679
-37.495
-36.325
-35.173
-34.047
-32.951
-31.891
-30.871
-29.894
-28.965
-28.086
-27.259
-26.486
-25.769
-25.109
-24.506
-23.961
-23.473
-23.041
-22.666
-22.346
-22.08
-21.867
-21.704
-21.591
-21.525
-21.503
-21.524
-21.585
-21.681
-21.81
-21.967
-22.149
-22.352
-22.572
-22.804
-23.047
-23.295
-23.546
-23.798
-24.047
-24.292
-24.531
-24.762
-24.985
-25.198
-25.404
-25.6
-25.789
-25.972
-26.151
-26.327
-26.504
-26.684
-26.869
-27.064
-27.272
-27.496
-27.74
-28.009
-28.306
-28.637
-29.005
-29.416
-29.874
-30.384
-30.95
-31.576
-32.267
-33.025
-33.853
-34.753
-35.727
-36.776
-37.901
-39.101
-40.376
-41.725
-43.145
-44.634
-46.19
-47.808
-49.484
-51.212
-52.986
-54.802
-56.651
-58.527
-60.421
-62.326
-64.232
-66.132
-68.016
-69.875
-71.699
-73.477
-75.202
-76.862
-78.449
-79.952
-81.363
-82.673
-83.874
-84.959
-85.923
-86.757
-87.458
-88.022
-88.443
-88.72
-88.85
-88.831
-88.662
-88.345
-87.881
-87.272
-86.522
-85.636
-84.622
-83.492
-82.256
-80.924
-79.51
-78.026
-76.492
-74.921
-73.327
-71.721
-70.113
-68.516
-66.946
-65.418
-63.943
-62.532
-61.189
-59.926
-58.754
-57.683
-56.719
-55.855
-55.085
-54.411
-53.847
-53.421
-53.152
-53.05
-53.115
-53.352
-53.766
-54.359
-55.114
-55.985
-56.921
-57.872
-58.797
-59.683
-60.519
-61.272
-61.902
-62.326
-62.45
-62.231
-61.649
-60.691
-59.403
-57.791
-55.809
-53.637
-51.584
-49.941
-49.074
-49.115
-49.892
-51.512
-54.37
-58.51
-63.699
-69.384
-74.478
-78.457
-81.563
-83.617
-84.035
-82.588
-79.393
-75.54
-73.379
-74.622
-79.838
-89.649
-104.644
-124.929
-150.022
-177.572
-203.077
-221.926
-230.193
-224.043
-199.861
-154.541
-85.414
6.477
115.38
234.828
357.556
479.158
601.442
722.997
837.547
934.7
992.537
990.587
919.729
776.394
574.598
342.486
106.408
-102.412
-259.679
-361.475
-412.674
-429.823
-434.927
-436.935
-436.749
-429.958
-409.113
-374.565
-331.787
-287.011
-246.424
-212.754
-186.793
-168.97
-158.44
-154.033
-154.466
-158.212
-164.274
-171.745
-179.05
-184.558
-187.41
-187.423
-184.95
-180.61
-174.794
-167.867
-160.665
-154.256
-149.272
-145.899
-143.979
-143.079
-142.835
-143.02
-143.255
-143.062
-142.159
-140.414
-137.819
-134.53
-130.661
-126.257
-121.402
-116.185
-110.667
-104.923
-99.016
-92.987
-86.905
-80.827
-74.782
-68.802
-62.897
-57.057
-51.275
-45.526
-39.768
-33.977
-28.136
-22.231
-16.254
-10.189
-4.013
2.294
8.753
15.381
22.191
29.196
36.405
43.822
51.443
59.259
67.259
75.432
83.77
92.259
100.889
109.643
118.503
127.449
136.46
145.51
154.572
163.613
172.6
181.499
190.275
198.892
207.312
215.499
223.414
231.021
238.281
245.158
251.616
257.621
263.138
268.135
272.582
276.451
279.716
282.353
284.342
285.665
286.307
286.258
285.509
284.056
281.898
279.037
275.479
271.233
266.313
260.736
254.521
247.692
240.278
232.308
223.815
214.836
205.409
195.575
185.375
174.853
164.054
153.025
141.811
130.459
119.014
107.524
96.033
84.59
73.236
62.017
50.971
40.14
29.56
19.268
9.295
-0.328
-9.576
-18.426
-26.853
-34.837
-42.361
-49.41
-55.976
-62.057
-67.648
-72.752
-77.37
-81.51
-85.181
-88.396
-91.166
-93.505
-95.423
-96.935
-98.064
-98.833
-99.268
-99.403
-99.247
-98.816
-98.122
-97.172
-96.003
-94.653
-93.139
-91.487
-89.715
-87.818
-85.869
-83.947
-81.979
-79.921
-77.714
-75.258
-72.694
-70.216
-67.771
-65.329
-63.107
-61.214
-59.917
-59.554
-59.794
-60.257
-60.942
-61.749
-62.434
-62.905
-62.739
-61.443
-59.43
-57.127
-54.606
-52.088
-49.695
-47.418
-45.63
-44.725
-44.389
-44.326
-44.427
-44.462
-44.43
-44.395
-44.159
-43.538
-42.656
-41.605
-40.451
-39.312
-38.141
-36.882
-35.58
-34.262
-32.917
-31.552
-30.151
-28.694
-27.211
-25.729
-24.261
-22.827
-21.43
-20.073
-18.766
-17.518
-16.337
-15.234
-14.217
-13.293
-12.469
-11.753
-11.152
-10.672
-10.317
-10.091
-9.997
-10.036
-10.213
-10.531
-10.994
-11.603
-12.358
-13.256
-14.296
-15.474
-16.784
-18.222
-19.779
-21.448
-23.22
-25.087
-27.038
-29.065
-31.156
-33.301
-35.489
-37.707
-39.943
-42.186
-44.422
-46.638
-48.819
-50.954
-53.026
-55.025
-56.936
-58.747
-60.443
-62.013
-63.443
-64.72
-65.833
-66.77
-67.52
-68.072
-68.417
-68.549
-68.46
-68.147
-67.603
-66.826
-65.815
-64.567
-63.085
-61.369
-59.421
-57.245
-54.848
-52.236
-49.42
-46.41
-43.218
-39.86
-36.353
-32.716
-28.969
-25.132
-21.226
-17.275
-13.302
-9.329
-5.379
-1.475
2.361
6.102
9.722
13.196
16.498
19.606
22.496
25.146
27.537
29.658
31.498
33.047
34.29
35.205
35.77
35.976
35.814
35.28
34.377
33.117
31.527
29.655
27.552
25.261
22.819
20.243
17.559
14.806
12.032
9.297
6.658
4.145
1.788
-0.367
-2.311
-4.08
-5.76
-7.497
-9.419
-11.595
-14.095
-16.976
-20.301
-24.163
-28.64
-33.789
-39.741
-46.667
-54.641
-63.689
-73.628
-83.951
-94.049
-103.223
-110.601
-115.359
-117.052
-115.448
-110.766
-104.224
-97.419
-92.058
-90.445
-92.928
-97.265
-102.12
-105.779
-110.268
-122.732
-143.192
-164.998
-172.552
-141.313
-60.128
66.56
222.296
379.435
521.611
647.079
757.535
856.243
936.277
979.604
972.432
909.198
794.643
642.027
462.603
266.814
66.231
-123.214
-279.364
-387.695
-444.057
-457.112
-447.709
-429.573
-408.421
-384.555
-351.608
-308.985
-261.697
-214.65
-173.848
-142.942
-122.204
-110.846
-107.288
-109.373
-115.01
-122.667
-130.902
-137.819
-141.845
-142.238
-138.85
-132.285
-123.526
-113.256
-102.175
-91.341
-81.788
-74.134
-68.593
-64.968
-62.814
-61.732
-61.339
-61.17
-60.748
-59.782
-58.153
-55.862
-53.008
-49.686
-45.962
-41.916
-37.642
-33.194
-28.608
-23.923
-19.167
-14.399
-9.697
-5.104
-0.647
3.663
7.835
11.885
15.828
19.708
23.572
27.458
31.395
35.409
39.523
43.768
48.181
52.794
57.638
62.741
68.124
73.807
79.801
86.111
92.737
99.671
106.902
114.42
122.213
130.265
138.559
147.073
155.782
164.658
173.669
182.781
191.955
201.147
210.316
219.417
228.403
237.228
245.844
254.204
262.259
269.962
277.268
284.131
290.506
296.351
301.628
306.298
310.328
313.686
316.345
318.28
319.472
319.905
319.567
318.451
316.553
313.876
310.424
306.209
301.245
295.55
289.147
282.063
274.327
265.974
257.041
247.568
237.597
227.172
216.342
205.154
193.656
181.901
169.937
157.817
145.591
133.309
121.021
108.775
96.619
84.597
72.755
61.132
49.768
38.7
27.961
17.582
7.59
-1.989
-11.134
-19.826
-28.05
-35.794
-43.047
-49.804
-56.06
-61.814
-67.069
-71.827
-76.096
-79.885
-83.203
-86.064
-88.482
-90.472
-92.051
-93.238
-94.052
-94.512
-94.639
-94.453
-93.976
-93.229
-92.234
-91.011
-89.581
-87.965
-86.181
-84.25
-82.188
-80.013
-77.742
-75.391
-72.973
-70.504
-67.996
-65.462
-62.914
-60.362
-57.816
-55.286
-52.779
-50.305
-47.869
-45.479
-43.141
-40.861
-38.643
-36.493
-34.414
-32.411
-30.487
-28.646
-26.889
-25.221
-23.642
-22.155
-20.763
-19.467
-18.27
-17.173
-16.178
-15.288
-14.502
-13.823
-13.252
-12.789
-12.434
-12.188
-12.051
-12.021
-12.097
-12.28
-12.566
-12.953
-13.439
-14.02
-14.692
-15.452
-16.294
-17.214
-18.206
-19.265
-20.384
-21.559
-22.782
-24.048
-25.35
-26.681
-28.036
-29.405
-30.783
-32.162
-33.535
-34.895
-36.236
-37.551
-38.834
-40.078
-41.28
-42.434
-43.534
-44.576
-45.557
-46.473
-47.321
-48.099
-48.805
-49.438
-49.998
-50.485
-50.9
-51.243
-51.515
-51.718
-51.852
-51.919
-51.921
-51.857
-51.73
-51.539
-51.288
-50.976
-50.606
-50.178
-49.693
-49.152
-48.553
-47.897
-47.183
-46.41
-45.575
-44.676
-43.713
-42.682
-41.583
-40.411
-39.164
-37.839
-36.433
-34.942
-33.363
-31.693
-29.927
-28.064
-26.1
-24.035
-21.87
-19.605
-17.245
-14.793
-12.258
-9.647
-6.97
-4.236
-1.455
1.363
4.206
7.063
9.919
12.758
15.564
18.317
20.999
23.587
26.062
28.406
30.605
32.645
34.516
36.21
37.715
39.015
40.092
40.924
41.494
41.795
41.822
41.573
41.055
40.286
39.292
38.115
36.792
35.343
33.788
32.136
30.41
28.658
26.923
25.256
23.683
22.185
20.769
19.464
18.274
17.199
16.16
14.988
13.596
11.977
10.04
7.655
4.507
0.084
-5.845
-13.256
-22.149
-32.41
-43.79
-55.936
-67.789
-77.736
-84.737
-88.215
-87.887
-84.07
-77.201
-67.917
-58.192
-50.891
-48.04
-51.02
-60.726
-76.624
-97.754
-123.006
-147.728
-165.976
-174.549
-169.135
-148.945
-115.234
-62.003
14.228
116.126
244.218
385.176
526.087
654.921
763.328
856.737
935.086
994.684
1026.776
1008.828
930.562
790.375
592.506
363.672
128.871
-87.548
-256.144
-370.565
-435.381
-461.006
-469.009
-465.097
-444.081
-403.746
-342.522
-273.127
-216.183
-182.278
-172.126
-175.203
-177.245
-172.017
-160.887
-149.646
-142.688
-140.061
-138.825
-135.043
-127.162
-115.591
-101.166
-85.335
-69.254
-53.722
-39.988
-29.023
-21.068
-16.197
-14.229
-14.696
-17.187
-21.095
-25.53
-29.885
-33.841
-37.185
-39.924
-42.05
-43.443
-44.091
-44.017
-43.159
-41.504
-39.031
-35.683
-31.524
-26.683
-21.322
-15.689
-9.969
-4.264
1.342
6.817
12.151
17.315
22.326
27.219
32.013
36.734
41.382
45.945
50.446
54.923
59.47
64.243
69.254
74.472
80.004
85.89
92.232
99.196
106.589
114.106
121.912
130.195
138.591
146.983
155.137
162.25
169.742
179.054
188.51
197.672
203.81
203.459
200.936
199.356
202.238
214.564
231.645
249.312
264.695
273.248
277.771
281.106
284.274
289.515
295.697
301.471
307.007
311.94
316.468
320.9
324.676
327.288
328.431
327.788
325.275
320.867
314.483
306.046
295.519
282.906
268.233
251.518
232.747
211.895
188.937
163.975
137.246
109.021
79.605
49.248
18.122
-13.595
-45.706
-77.994
-110.222
-142.182
-173.683
-204.474
-234.238
-262.612
-289.227
-313.845
-336.369
-356.742
-374.935
-390.9
-404.572
-415.931
-425.013
-431.883
-436.61
-439.265
-439.949
-438.843
-436.226
-432.448
-427.854
-422.694
-417.14
-411.326
-405.38
-399.429
-393.583
-387.904
-382.415
-377.139
-372.11
-367.368
-362.921
-358.724
-354.673
-350.617
-346.43
-342.038
-337.399
-332.497
-327.323
-321.875
-316.176
-310.284
-304.263
-298.166
-292.033
-285.886
-279.767
-273.733
-267.857
-262.222
-256.89
-251.902
-247.287
-243.061
-239.233
-235.801
-232.747
-230.035
-227.63
-225.505
-223.633
-221.995
-220.566
-219.314
-218.206
-217.211
-216.3
-215.446
-214.624
-213.808
-212.975
-212.105
-211.182
-210.194
-209.13
-207.974
-206.716
-205.344
-203.847
-202.22
-200.458
-198.556
-196.514
-194.336
-192.026
-189.593
-187.048
-184.405
-181.678
-178.883
-176.04
-173.167
-170.286
-167.417
-164.581
-161.802
-159.1
-156.497
-154.015
-151.674
-149.496
-147.498
-145.7
-144.119
-142.768
-141.662
-140.811
-140.224
-139.909
-139.87
-140.111
-140.632
-141.43
-142.501
-143.839
-145.434
-147.273
-149.341
-151.621
-154.094
-156.736
-159.526
-162.44
-165.452
-168.534
-171.66
-174.801
-177.93
-181.018
-184.037
-186.957
-189.751
-192.392
-194.854
-197.113
-199.146
-200.931
-202.454
-203.7
-204.659
-205.323
-205.685
-205.742
-205.493
-204.939
-204.082
-202.923
-201.466
-199.715
-197.683
-195.386
-192.84
-190.062
-187.069
-183.881
-180.518
-177.006
-173.36
-169.591
-165.716
-161.753
-157.735
-153.711
-149.716
-145.779
-141.927
-138.178
-134.547
-131.045
-127.661
-124.358
-121.101
-117.858
-114.61
-111.359
-108.085
-104.753
-101.315
-97.702
-93.872
-89.811
-85.495
-80.921
-76.125
-71.163
-66.144
-61.228
-56.548
-52.251
-48.497
-45.417
-43.16
-41.842
-41.599
-42.669
-45.184
-49.108
-54.227
-60.086
-66.173
-72.118
-77.426
-81.311
-83.204
-82.907
-80.86
-78.19
-75.92
-74.828
-75.691
-79.499
-87.334
-98.258
-108.601
-114.468
-111.788
-100.827
-87.096
-71.312
-51.391
-19.287
41.643
138.516
271.296
433.502
603.306
762.608
896.989
989.375
1036.012
1035.774
985.829
894.192
764.876
598.51
405.864
197.706
-8.318
-183.644
-310.421
-381.166
-398.934
-382.124
-346.259
-302.145
-259.731
-221.686
-191.571
-170.929
-154.388
-138.8
-121.029
-101.041
-84.411
-73.695
-69.653
-71.145
-74.335
-77.208
-78.561
-77.307
-73.619
-67.663
-59.621
-50.312
-40.345
-30.255
-21
-13.248
-7.281
-3.241
-0.878
0.256
0.531
0.427
0.503
1.105
2.438
4.595
7.514
11.136
15.419
20.257
25.545
31.207
37.181
43.435
49.937
56.615
63.376
70.115
76.753
83.25
89.582
95.738
101.721
107.536
113.21
118.786
124.293
129.749
135.173
140.572
145.969
151.391
156.865
162.417
168.072
173.844
179.748
185.795
191.987
198.324
204.801
211.409
218.14
224.989
231.948
239.01
246.162
253.392
260.684
268.02
275.381
282.741
290.075
297.355
304.55
311.631
318.568
325.328
331.879
338.188
344.222
349.951
355.342
360.363
364.984
369.177
372.913
376.169
378.92
381.144
382.823
383.94
384.482
384.439
383.8
382.562
380.721
378.277
375.235
371.601
367.385
362.598
357.257
351.38
344.991
338.113
330.774
323.002
314.829
306.288
297.413
288.239
278.804
269.145
259.299
249.306
239.203
229.027
218.818
208.609
198.438
188.339
178.344
168.484
158.791
149.292
140.013
130.981
122.217
113.743
105.577
97.736
90.235
83.086
76.299
69.882
63.841
58.179
52.898
47.999
43.48
39.337
35.564
32.154
29.1
26.392
24.018
21.968
20.229
18.787
17.631
16.744
16.115
15.728
15.569
15.623
15.875
16.31
16.914
17.672
18.569
19.591
20.724
21.954
23.268
24.652
26.094
27.582
29.102
30.644
32.196
33.747
35.288
36.808
38.299
39.751
41.159
42.512
43.806
45.033
46.185
47.258
48.245
49.14
49.937
50.633
51.222
51.7
52.063
52.308
52.432
52.433
52.308
52.055
51.674
51.163
50.522
49.752
48.854
47.829
46.681
45.411
44.022
42.519
40.905
39.184
37.359
35.437
33.421
31.318
29.133
26.873
24.545
22.156
19.713
17.225
14.7
12.145
9.569
6.98
4.388
1.801
-0.773
-3.322
-5.839
-8.311
-10.731
-13.089
-15.376
-17.582
-19.701
-21.722
-23.64
-25.446
-27.134
-28.695
-30.124
-31.413
-32.557
-33.551
-34.39
-35.07
-35.587
-35.937
-36.121
-36.137
-35.985
-35.666
-35.181
-34.532
-33.724
-32.762
-31.651
-30.398
-29.009
-27.497
-25.874
-24.158
-22.365
-20.515
-18.627
-16.725
-14.826
-12.95
-11.107
-9.311
-7.574
-5.911
-4.332
-2.854
-1.49
-0.252
0.847
1.798
2.601
3.264
3.803
4.226
4.535
4.718
4.756
4.631
4.33
3.837
3.133
2.214
1.098
-0.187
-1.59
-3.084
-4.675
-6.37
-8.168
-10.038
-11.915
-13.717
-15.372
-16.798
-17.884
-18.598
-18.987
-19.208
-19.542
-20.277
-21.628
-23.737
-26.719
-30.381
-34.251
-37.784
-40.317
-41.317
-40.546
-37.879
-33.199
-26.983
-20.233
-13.923
-9.124
-6.653
-6.839
-10.107
-17.222
-28.274
-42.783
-60.205
-79.435
-99.717
-120.825
-141.5
-159.51
-171.667
-173.375
-162.204
-137.639
-100.43
-53.979
2.95
74.216
162.661
272.773
401.948
541.899
685.331
821.421
937.047
1020.077
1055.668
1029.536
939.759
791.205
592.929
366.073
130.464
-92.953
-275.867
-402.469
-468.995
-481.731
-462.355
-430.604
-395.312
-359.512
-319.758
-272.735
-222.486
-175.384
-137.244
-112.544
-101.549
-101.927
-110.653
-123.913
-137.867
-149.484
-156.713
-158.525
-154.831
-146.15
-133.502
-118.378
-102.636
-88.101
-75.956
-66.72
-60.443
-56.866
-55.599
-56.169
-57.903
-59.982
-61.805
-63.059
-63.621
-63.53
-62.829
-61.494
-59.547
-57.081
-54.179
-50.907
-47.311
-43.393
-39.171
-34.717
-30.115
-25.471
-20.888
-16.418
-12.088
-7.916
-3.902
-0.048
3.651
7.225
10.716
14.159
17.581
21.006
24.452
27.951
31.545
35.268
39.155
43.229
47.505
51.999
56.722
61.68
66.874
72.3
77.949
83.814
89.887
96.162
102.625
109.265
116.061
122.995
130.046
137.19
144.397
151.638
158.879
166.087
173.226
180.26
187.152
193.863
200.354
206.589
212.527
218.133
223.366
228.193
232.577
236.485
239.887
242.754
245.059
246.778
247.89
248.378
248.227
247.424
245.963
243.836
241.043
237.586
233.471
228.705
223.301
217.277
210.651
203.446
195.69
187.412
178.644
169.42
159.778
149.756
139.394
128.735
117.822
106.698
95.408
83.997
72.511
60.993
49.487
38.037
26.685
15.471
4.434
-6.388
-16.96
-27.248
-37.221
-46.848
-56.104
-64.963
-73.404
-81.407
-88.957
-96.04
-102.646
-108.765
-114.395
-119.531
-124.174
-128.326
-131.994
-135.184
-137.905
-140.17
-141.992
-143.385
-144.368
-144.958
-145.173
-145.036
-144.565
-143.783
-142.712
-141.374
-139.792
-137.988
-135.985
-133.805
-131.471
-129.005
-126.429
-123.764
-121.03
-118.248
-115.435
-112.609
-109.788
-106.986
-104.22
-101.501
-98.843
-96.258
-93.754
-91.342
-89.029
-86.823
-84.729
-82.752
-80.896
-79.165
-77.561
-76.086
-74.741
-73.528
-72.446
-71.497
-70.679
-69.993
-69.437
-69.01
-68.711
-68.537
-68.486
-68.557
-68.746
-69.051
-69.47
-70.001
-70.641
-71.388
-72.241
-73.196
-74.254
-75.411
-76.668
-78.021
-79.47
-81.015
-82.654
-84.386
-86.212
-88.129
-90.137
-92.236
-94.423
-96.696
-99.054
-101.492
-104.008
-106.597
-109.255
-111.977
-114.756
-117.587
-120.462
-123.375
-126.318
-129.282
-132.258
-135.237
-138.207
-141.159
-144.081
-146.96
-149.784
-152.538
-155.21
-157.786
-160.251
-162.592
-164.793
-166.84
-168.718
-170.415
-171.916
-173.207
-174.275
-175.109
-175.698
-176.033
-176.108
-175.918
-175.459
-174.734
-173.747
-172.503
-171.008
-169.269
-167.293
-165.094
-162.687
-160.082
-157.298
-154.35
-151.256
-148.042
-144.733
-141.35
-137.916
-134.447
-130.96
-127.482
-124.034
-120.634
-117.302
-114.055
-110.917
-107.924
-105.103
-102.476
-100.06
-97.864
-95.894
-94.159
-92.656
-91.367
-90.275
-89.363
-88.609
-88
-87.52
-87.143
-86.848
-86.624
-86.457
-86.33
-86.226
-86.112
-85.975
-85.885
-85.904
-86.049
-86.448
-87.288
-88.841
-91.596
-95.948
-101.944
-109.648
-119.158
-130.169
-142.234
-154.561
-165.61
-174.088
-179.441
-181.199
-179.165
-173.939
-166.313
-157.737
-150.918
-148.395
-151.973
-163.17
-182.714
-208.843
-238.18
-267.222
-292.142
-313.018
-332.625
-348.932
-354.202
-334.26
-273.395
-166.811
-24.21
135.286
291.87
434.6
565.03
688.327
802.571
897.959
956.218
958.78
899.862
782.208
615.361
417.017
203.554
-6.634
-189.918
-329.535
-418.195
-458.867
-468.146
-464.166
-456.232
-446.666
-430.891
-403.095
-364.209
-318.694
-271.865
-228.927
-191.982
-161.825
-139.212
-123.67
-114.284
-110.092
-109.874
-112.695
-117.622
-122.929
-126.765
-128.135
-126.758
-122.874
-117.021
-109.602
-101.05
-92.333
-84.617
-78.565
-74.399
-71.972
-70.836
-70.625
-71.067
-71.729
-72.112
-71.928
-71.029
-69.409
-67.224
-64.578
-61.522
-58.139
-54.505
-50.674
-46.708
-42.656
-38.548
-34.44
-30.372
-26.362
-22.426
-18.559
-14.745
-10.965
-7.181
-3.346
0.572
4.597
8.747
13.032
17.477
22.108
26.949
32.02
37.339
42.918
48.77
54.901
61.309
67.988
74.924
82.1
89.5
97.109
104.911
112.886
121.012
129.264
137.615
146.038
154.5
162.967
171.401
179.764
188.018
196.124
204.042
211.732
219.155
226.271
233.042
239.43
245.399
250.913
255.938
260.443
264.398
267.777
270.555
272.712
274.229
275.091
275.288
274.813
273.661
271.832
269.329
266.159
262.333
257.864
252.771
247.073
240.794
233.963
226.608
218.762
210.462
201.744
192.648
183.215
173.488
163.51
153.327
142.982
132.52
121.988
111.428
100.887
90.406
80.028
69.793
59.74
49.905
40.325
31.029
22.049
13.41
5.137
-2.748
-10.228
-17.286
-23.911
-30.092
-35.822
-41.098
-45.916
-50.281
-54.194
-57.663
-60.697
-63.307
-65.507
-67.313
-68.742
-69.812
-70.545
-70.96
-71.082
-70.933
-70.537
-69.92
-69.105
-68.118
-66.983
-65.724
-64.366
-62.931
-61.441
-59.916
-58.377
-56.84
-55.324
-53.845
-52.416
-51.051
-49.762
-48.559
-47.452
-46.446
-45.55
-44.766
-44.098
-43.548
-43.116
-42.803
-42.606
-42.522
-42.55
-42.683
-42.917
-43.247
-43.664
-44.163
-44.735
-45.371
-46.064
-46.805
-47.585
-48.396
-49.231
-50.083
-50.943
-51.806
-52.666
-53.516
-54.351
-55.166
-55.957
-56.72
-57.451
-58.147
-58.806
-59.426
-60.007
-60.545
-61.042
-61.496
-61.905
-62.27
-62.591
-62.867
-63.098
-63.285
-63.428
-63.528
-63.588
-63.609
-63.592
-63.539
-63.451
-63.33
-63.176
-62.99
-62.77
-62.517
-62.229
-61.905
-61.545
-61.146
-60.707
-60.225
-59.696
-59.12
-58.492
-57.808
-57.065
-56.26
-55.387
-54.447
-53.435
-52.351
-51.193
-49.958
-48.648
-47.263
-45.802
-44.266
-42.654
-40.966
-39.203
-37.369
-35.465
-33.493
-31.459
-29.369
-27.235
-25.067
-22.876
-20.675
-18.476
-16.293
-14.142
-12.035
-9.981
-7.99
-6.072
-4.242
-2.518
-0.914
0.557
1.883
3.051
4.05
4.866
5.497
5.949
6.223
6.316
6.216
5.891
5.322
4.5
3.415
2.065
0.457
-1.403
-3.48
-5.713
-8.047
-10.427
-12.811
-15.185
-17.507
-19.725
-21.784
-23.599
-25.11
-26.283
-27.075
-27.471
-27.506
-27.236
-26.764
-26.242
-25.805
-25.614
-25.845
-26.63
-28.111
-30.381
-33.577
-37.979
-43.747
-50.855
-59.122
-68.073
-77.178
-86.07
-94.15
-100.496
-104.496
-105.938
-105.146
-103.209
-101.38
-100.713
-102.488
-108.432
-118.238
-129.088
-137.941
-140.86
-138.91
-138.832
-141.6
-143.078
-129.115
-77.151
21.48
162.944
330.554
497.442
650.248
784.285
898.073
991.704
1053.534
1066.685
1018.428
903.858
728.013
507.02
265.585
29.958
-170.23
-312.598
-393.804
-422.885
-419.15
-402.997
-380.612
-348.209
-303.387
-247.082
-187.839
-140.937
-112.215
-98.284
-94.159
-90.705
-84.594
-80.165
-79.02
-82.086
-88.795
-94.712
-97.183
-95.973
-91.213
-83.93
-75.27
-65.776
-55.987
-46.895
-39.452
-34.033
-30.735
-29.392
-29.579
-30.968
-33.237
-35.856
-38.299
-40.264
-41.591
-42.26
-42.346
-41.866
-40.842
-39.344
-37.454
-35.245
-32.758
-30.014
-27.03
-23.853
-20.557
-17.219
-13.889
-10.587
-7.319
-4.076
-0.845
2.391
5.67
9.039
12.533
16.184
20.018
24.057
28.329
32.868
37.702
42.858
48.358
54.215
60.438
67.034
73.999
81.324
88.999
97.004
105.323
113.938
122.829
131.972
141.341
150.907
160.637
170.498
180.452
190.456
200.47
210.446
220.339
230.104
239.691
249.053
258.141
266.908
275.307
283.291
290.815
297.836
304.312
310.206
315.481
320.105
324.049
327.287
329.797
331.561
332.565
332.8
332.259
330.939
328.842
325.975
322.348
317.975
312.873
307.064
300.574
293.431
285.67
277.324
268.434
259.039
249.183
238.911
228.27
217.307
206.071
194.612
182.977
171.216
159.378
147.508
135.653
123.856
112.159
100.603
89.224
78.058
67.138
56.493
46.151
36.137
26.473
17.176
8.264
-0.25
-8.357
-16.049
-23.32
-30.17
-36.599
-42.611
-48.21
-53.404
-58.205
-62.622
-66.671
-70.366
-73.723
-76.76
-79.495
-81.947
-84.134
-86.075
-87.79
-89.296
-90.611
-91.753
-92.738
-93.581
-94.298
-94.903
-95.407
-95.824
-96.165
-96.439
-96.655
-96.82
-96.943
-97.029
-97.082
-97.106
-97.105
-97.082
-97.036
-96.971
-96.885
-96.779
-96.652
-96.502
-96.328
-96.129
-95.902
-95.646
-95.359
-95.041
-94.689
-94.305
-93.887
-93.437
-92.957
-92.447
-91.911
-91.352
-90.774
-90.18
-89.576
-88.966
-88.357
-87.753
-87.162
-86.59
-86.044
-85.53
-85.055
-84.625
-84.247
-83.927
-83.668
-83.478
-83.36
-83.319
-83.358
-83.479
-83.687
-83.982
-84.366
-84.84
-85.403
-86.053
-86.788
-87.604
-88.497
-89.462
-90.49
-91.575
-92.708
-93.881
-95.085
-96.307
-97.537
-98.763
-99.973
-101.154
-102.293
-103.376
-104.39
-105.322
-106.159
-106.891
-107.507
-107.994
-108.345
-108.55
-108.602
-108.494
-108.22
-107.775
-107.155
-106.358
-105.382
-104.23
-102.902
-101.403
-99.74
-97.924
-95.966
-93.881
-91.681
-89.383
-87.004
-84.561
-82.073
-79.553
-77.018
-74.485
-71.973
-69.508
-67.111
-64.8
-62.595
-60.516
-58.58
-56.808
-55.208
-53.784
-52.541
-51.487
-50.64
-50.032
-49.685
-49.606
-49.805
-50.281
-51.03
-52.043
-53.289
-54.71
-56.257
-57.883
-59.552
-61.254
-62.956
-64.61
-66.16
-67.526
-68.653
-69.514
-70.071
-70.301
-70.222
-69.872
-69.342
-68.774
-68.281
-67.972
-67.976
-68.408
-69.397
-71.051
-73.489
-76.9
-81.402
-87.011
-93.558
-100.606
-107.628
-114.183
-119.763
-123.678
-125.383
-124.584
-121.625
-117.701
-114.114
-111.829
-111.744
-114.886
-122.15
-133.918
-147.856
-159.015
-163.009
-156.764
-141.316
-120.099
-91.71
-51.111
9.525
98.529
215.59
353.734
503.795
653.161
789.22
898.474
964.149
973.067
920.971
814.253
667.714
496.178
312.642
126.976
-49.774
-199.75
-310.375
-376.823
-404.369
-410.966
-409.521
-404.893
-396.16
-376.578
-344.856
-304.963
-261.905
-221.493
-186.507
-157.913
-136.842
-123.101
-116.003
-114.695
-117.678
-123.811
-132.076
-140.647
-147.547
-151.585
-152.24
-149.634
-144.367
-136.931
-127.859
-118.205
-109.211
-101.661
-95.878
-91.786
-88.975
-87.063
-85.763
-84.635
-83.164
-81.052
-78.166
-74.505
-70.228
-65.46
-60.258
-54.713
-48.918
-42.929
-36.812
-30.622
-24.397
-18.208
-12.114
-6.146
-0.336
5.308
10.795
16.134
21.354
26.497
31.591
36.654
41.703
46.746
51.802
56.897
62.054
67.301
72.658
78.145
83.782
89.584
95.558
101.704
108.019
114.492
121.117
127.888
134.793
141.824
148.965
156.2
163.509
170.872
178.264
185.655
193.014
200.305
207.495
214.547
221.426
228.092
234.509
240.639
246.444
251.889
256.936
261.551
265.699
269.349
272.468
275.03
277.007
278.377
279.12
279.219
278.662
277.438
275.544
272.976
269.738
265.835
261.277
256.078
250.254
243.828
236.824
229.27
221.198
212.644
203.644
194.238
184.468
174.377
164.01
153.41
142.625
131.699
120.679
109.611
98.538
87.507
76.56
65.738
55.082
44.629
34.414
24.471
14.829
5.515
-3.446
-12.033
-20.227
-28.014
-35.38
-42.317
-48.819
-54.881
-60.505
-65.691
-70.446
-74.777
-78.694
-82.209
-85.334
-88.087
-90.481
-92.537
-94.271
-95.703
-96.853
-97.741
-98.387
-98.813
-99.039
-99.084
-98.968
-98.708
-98.324
-97.831
-97.245
-96.58
-95.85
-95.067
-94.241
-93.382
-92.5
-91.603
-90.696
-89.786
-88.877
-87.974
-87.078
-86.193
-85.321
-84.461
-83.616
-82.785
-81.968
-81.166
-80.378
-79.603
-78.843
-78.096
-77.362
-76.643
-75.937
-75.247
-74.572
-73.916
-73.28
-72.667
-72.08
-71.523
-71.001
-70.518
-70.078
-69.686
-69.348
-69.068
-68.849
-68.697
-68.615
-68.607
-68.676
-68.824
-69.052
-69.364
-69.759
-70.239
-70.802
-71.447
-72.173
-72.976
-73.854
-74.803
-75.817
-76.891
-78.017
-79.189
-80.4
-81.64
-82.9
-84.17
-85.439
-86.696
-87.928
-89.123
-90.268
-91.35
-92.356
-93.274
-94.091
-94.798
-95.381
-95.833
-96.143
-96.304
-96.311
-96.156
-95.834
-95.341
-94.677
-93.84
-92.83
-91.649
-90.3
-88.79
-87.129
-85.327
-83.396
-81.35
-79.201
-76.965
-74.661
-72.302
-69.902
-67.474
-65.033
-62.598
-60.191
-57.832
-55.539
-53.331
-51.224
-49.237
-47.388
-45.685
-44.129
-42.724
-41.475
-40.401
-39.534
-38.895
-38.493
-38.341
-38.439
-38.782
-39.367
-40.162
-41.116
-42.182
-43.316
-44.486
-45.687
-46.887
-48.041
-49.098
-49.976
-50.616
-50.986
-51.042
-50.764
-50.18
-49.326
-48.283
-47.177
-46.108
-45.2
-44.59
-44.375
-44.669
-45.568
-47.218
-49.892
-53.755
-58.785
-64.796
-71.333
-77.863
-83.958
-89.01
-92.166
-92.926
-91.204
-87.467
-82.964
-79.114
-77.286
-78.945
-85.432
-96.306
-109.218
-121.393
-130.043
-135.906
-141.856
-146.268
-142.005
-115.504
-52.196
51.378
185.103
330.534
468.582
589.834
698.004
798.552
889.585
960.521
990.844
962.517
872.398
727.833
544.104
341.521
135.775
-58.899
-225.525
-352.845
-435.372
-472.62
-471.986
-442.212
-390.012
-325.356
-261.106
-207.946
-173.952
-158.401
-150.706
-142.388
-129.227
-112.248
-98.964
-93.916
-96.546
-104.544
-113.256
-118.901
-120.745
-118.91
-113.81
-106.286
-97.081
-86.757
-76.296
-66.968
-59.361
-53.703
-50.08
-48.124
-47.432
-47.674
-48.273
-48.622
-48.406
-47.446
-45.695
-43.249
-40.147
-36.42
-32.172
-27.501
-22.486
-17.182
-11.613
-5.801
0.193
6.286
12.384
18.422
24.368
30.205
35.931
41.547
47.057
52.486
57.871
63.237
68.602
73.982
79.385
84.833
90.353
95.969
101.704
107.58
113.608
119.799
126.159
132.689
139.383
146.234
153.229
160.356
167.605
174.964
182.418
189.95
197.541
205.169
212.812
220.443
228.033
235.551
242.966
250.245
257.355
264.263
270.932
277.331
283.424
289.178
294.56
299.54
304.083
308.162
311.747
314.811
317.331
319.284
320.649
321.409
321.55
321.06
319.933
318.163
315.749
312.692
308.998
304.676
299.738
294.199
288.077
281.394
274.174
266.446
258.24
249.587
240.522
231.082
221.305
211.228
200.891
190.335
179.6
168.727
157.756
146.729
135.684
124.662
113.701
102.839
92.111
81.551
71.193
61.067
51.201
41.619
32.347
23.405
14.812
6.582
-1.27
-8.735
-15.804
-22.472
-28.737
-34.597
-40.057
-45.12
-49.792
-54.082
-58.001
-61.559
-64.769
-67.645
-70.202
-72.455
-74.422
-76.12
-77.566
-78.779
-79.777
-80.58
-81.205
-81.671
-81.997
-82.199
-82.295
-82.3
-82.23
-82.1
-81.922
-81.711
-81.478
-81.232
-80.984
-80.743
-80.514
-80.304
-80.118
-79.96
-79.832
-79.737
-79.675
-79.649
-79.659
-79.704
-79.784
-79.899
-80.047
-80.227
-80.437
-80.675
-80.939
-81.227
-81.537
-81.867
-82.215
-82.581
-82.962
-83.359
-83.771
-84.197
-84.638
-85.093
-85.565
-86.053
-86.559
-87.085
-87.635
-88.21
-88.814
-89.451
-90.123
-90.834
-91.588
-92.386
-93.232
-94.128
-95.075
-96.076
-97.131
-98.243
-99.412
-100.638
-101.921
-103.259
-104.651
-106.094
-107.583
-109.113
-110.68
-112.275
-113.894
-115.527
-117.166
-118.803
-120.428
-122.03
-123.6
-125.124
-126.591
-127.989
-129.303
-130.521
-131.631
-132.618
-133.471
-134.179
-134.732
-135.121
-135.337
-135.37
-135.214
-134.863
-134.312
-133.557
-132.594
-131.42
-130.039
-128.461
-126.698
-124.764
-122.672
-120.438
-118.078
-115.615
-113.073
-110.467
-107.811
-105.116
-102.402
-99.692
-97.022
-94.414
-91.887
-89.452
-87.117
-84.896
-82.805
-80.851
-79.038
-77.354
-75.802
-74.394
-73.164
-72.16
-71.42
-70.95
-70.745
-70.798
-71.088
-71.662
-72.577
-73.738
-75.052
-76.419
-77.698
-78.953
-80.332
-81.693
-82.821
-83.863
-84.961
-86.477
-89.049
-92.628
-96.805
-101.554
-106.787
-111.936
-116.607
-119.979
-120.659
-118.448
-113.902
-107.501
-100.261
-93.585
-88.277
-85.386
-86.504
-91.975
-101.272
-113.529
-126.971
-139.679
-150.842
-160.061
-166.71
-171.121
-174.225
-177.207
-182.235
-189.935
-198.027
-204.003
-204.955
-201.646
-198.843
-195.745
-187.844
-163.032
-103.518
-4.873
128.838
284.367
440.507
588.403
723.602
841.618
938.438
999.864
1010.134
959.573
846.5
678.119
469.046
240.048
12.697
-187.276
-337.626
-431.55
-472.02
-475.03
-462.284
-443.85
-423.111
-398.101
-362.751
-318.171
-269.844
-222.882
-183.15
-153.826
-134.931
-125.488
-123.579
-126.815
-133.08
-140.906
-148.923
-155.328
-158.648
-158.224
-154.064
-146.912
-137.789
-127.38
-116.348
-105.689
-96.391
-89.023
-83.74
-80.292
-78.208
-77.078
-76.533
-76.131
-75.411
-74.093
-72.069
-69.341
-66.015
-62.188
-57.922
-53.293
-48.394
-43.281
-37.995
-32.582
-27.079
-21.548
-16.075
-10.712
-5.492
-0.435
4.462
9.202
13.797
18.277
22.686
27.05
31.393
35.734
40.088
44.481
48.946
53.509
58.197
63.034
68.039
73.229
78.614
84.2
89.986
95.967
102.134
108.478
114.993
121.667
128.488
135.441
142.509
149.67
156.906
164.189
171.493
178.787
186.041
193.222
200.298
207.236
214
220.556
226.869
232.906
238.633
244.016
249.021
253.617
257.774
261.463
264.658
267.333
269.466
271.038
272.03
272.429
272.224
271.406
269.971
267.917
265.245
261.96
258.07
253.585
248.518
242.887
236.711
230.013
222.816
215.148
207.038
198.517
189.617
180.374
170.821
160.996
150.934
140.675
130.256
119.715
109.092
98.423
87.747
77.102
66.523
56.046
45.704
35.532
25.56
15.817
6.332
-2.871
-11.767
-20.335
-28.555
-36.411
-43.886
-50.967
-57.645
-63.91
-69.756
-75.178
-80.175
-84.746
-88.893
-92.619
-95.93
-98.833
-101.336
-103.449
-105.185
-106.556
-107.576
-108.26
-108.626
-108.69
-108.471
-107.988
-107.26
-106.307
-105.15
-103.809
-102.305
-100.656
-98.885
-97.009
-95.048
-93.021
-90.946
-88.839
-86.718
-84.596
-82.49
-80.412
-78.376
-76.391
-74.47
-72.621
-70.853
-69.173
-67.587
-66.101
-64.718
-63.443
-62.277
-61.221
-60.276
-59.439
-58.71
-58.086
-57.563
-57.136
-56.801
-56.552
-56.384
-56.29
-56.266
-56.304
-56.398
-56.543
-56.731
-56.959
-57.22
-57.509
-57.823
-58.156
-58.506
-58.87
-59.245
-59.629
-60.02
-60.416
-60.817
-61.222
-61.63
-62.041
-62.455
-62.874
-63.297
-63.728
-64.167
-64.617
-65.079
-65.556
-66.049
-66.56
-67.09
-67.641
-68.211
-68.801
-69.411
-70.039
-70.684
-71.343
-72.011
-72.685
-73.359
-74.027
-74.683
-75.318
-75.924
-76.494
-77.018
-77.49
-77.899
-78.237
-78.496
-78.667
-78.743
-78.716
-78.579
-78.324
-77.946
-77.439
-76.8
-76.024
-75.112
-74.06
-72.873
-71.554
-70.112
-68.554
-66.888
-65.127
-63.283
-61.37
-59.403
-57.394
-55.356
-53.305
-51.259
-49.24
-47.268
-45.364
-43.546
-41.832
-40.243
-38.8
-37.515
-36.393
-35.442
-34.672
-34.103
-33.768
-33.69
-33.879
-34.349
-35.102
-36.138
-37.453
-39.022
-40.795
-42.731
-44.786
-46.931
-49.158
-51.438
-53.723
-55.96
-58.065
-59.983
-61.683
-63.122
-64.27
-65.134
-65.739
-66.162
-66.532
-66.946
-67.499
-68.297
-69.421
-70.995
-73.141
-75.996
-79.776
-84.61
-90.502
-97.326
-104.71
-112.131
-119.074
-124.872
-128.68
-129.918
-128.314
-124.126
-118.435
-112.58
-107.899
-105.872
-107.866
-114.781
-126.86
-142.964
-160.352
-175.559
-184.388
-182.117
-164.298
-126.63
-66.66
14.581
114.076
227.162
350.484
483.347
623.584
766.295
898.105
999.219
1051.599
1039.934
962.789
828.746
646.763
434.286
208.464
-12.601
-200.863
-337.562
-418.154
-446.116
-439.949
-418.289
-384.864
-343.695
-298.078
-248.712
-206.575
-176.89
-154.823
-138.128
-121.102
-101.932
-86.438
-77.028
-74.744
-79.081
-86.249
-93.934
-100.682
-105.008
-106.754
-106.079
-103.145
-98.482
-92.521
-85.664
-78.739
-72.735
-68.207
-65.281
-63.77
-63.24
-63.307
-63.726
-64.135
-64.089
-63.332
-61.75
-59.345
-56.266
-52.627
-48.471
-43.869
-38.9
-33.616
-28.088
-22.38
-16.536
-10.628
-4.713
1.18
7.017
12.787
18.494
24.145
29.764
35.39
41.043
46.738
52.485
58.289
64.164
70.134
76.214
82.423
88.775
95.278
101.942
108.772
115.768
122.92
130.215
137.636
145.168
152.797
160.509
168.285
176.106
183.95
191.796
199.619
207.393
215.087
222.672
230.112
237.377
244.434
251.248
257.787
264.017
269.904
275.417
280.524
285.193
289.396
293.104
296.292
298.934
301.011
302.503
303.393
303.669
303.321
302.341
300.728
298.482
295.604
292.102
287.986
283.267
277.963
272.091
265.672
258.73
251.292
243.387
235.046
226.302
217.19
207.746
198.008
188.015
177.805
167.421
156.9
146.284
135.612
124.925
114.261
103.658
93.152
82.779
72.572
62.562
52.779
43.249
33.999
25.049
16.422
8.134
0.202
-7.36
-14.542
-21.333
-27.727
-33.718
-39.303
-44.479
-49.249
-53.613
-57.576
-61.144
-64.322
-67.12
-69.547
-71.615
-73.335
-74.721
-75.786
-76.546
-77.015
-77.211
-77.148
-76.843
-76.312
-75.572
-74.639
-73.529
-72.258
-70.84
-69.291
-67.626
-65.859
-64.005
-62.077
-60.089
-58.054
-55.986
-53.898
-51.801
-49.708
-47.631
-45.58
-43.568
-41.604
-39.699
-37.861
-36.099
-34.422
-32.836
-31.35
-29.968
-28.696
-27.539
-26.502
-25.586
-24.796
-24.133
-23.6
-23.197
-22.924
-22.783
-22.772
-22.891
-23.138
-23.511
-24.007
-24.623
-25.354
-26.196
-27.143
-28.191
-29.332
-30.56
-31.869
-33.25
-34.696
-36.199
-37.751
-39.343
-40.968
-42.616
-44.281
-45.954
-47.627
-49.293
-50.946
-52.579
-54.186
-55.761
-57.299
-58.795
-60.245
-61.643
-62.986
-64.269
-65.488
-66.639
-67.718
-68.724
-69.652
-70.5
-71.265
-71.945
-72.539
-73.044
-73.459
-73.782
-74.01
-74.142
-74.178
-74.117
-73.959
-73.701
-73.344
-72.889
-72.336
-71.684
-70.934
-70.086
-69.138
-68.092
-66.949
-65.708
-64.37
-62.938
-61.416
-59.812
-58.133
-56.389
-54.587
-52.738
-50.853
-48.943
-47.016
-45.078
-43.136
-41.197
-39.273
-37.378
-35.521
-33.713
-31.963
-30.281
-28.678
-27.164
-25.74
-24.403
-23.153
-21.996
-20.949
-20.046
-19.307
-18.746
-18.376
-18.208
-18.246
-18.494
-18.93
-19.511
-20.194
-20.942
-21.726
-22.538
-23.341
-24.086
-24.715
-25.15
-25.331
-25.234
-24.826
-24.086
-23.037
-21.708
-20.162
-18.538
-16.97
-15.599
-14.596
-14.086
-14.183
-15.07
-16.994
-20.17
-24.688
-30.389
-36.871
-43.733
-50.603
-56.99
-62.237
-65.717
-67.124
-66.881
-66.108
-65.914
-67.386
-71.805
-80.383
-94.087
-112.05
-130.796
-146.371
-155.911
-160.393
-162.649
-160.986
-148.235
-110.406
-34.848
78.532
219.481
368.965
509.678
637.98
756.285
865.728
961.173
1023.946
1031.021
971.042
843.525
660.147
445.866
223.151
12.437
-163.911
-293.776
-372.647
-400.745
-390.074
-356.702
-313.428
-274.069
-247.137
-232.071
-225.306
-218.125
-202.256
-176.826
-145.831
-117.211
-96.867
-85.446
-80.741
-79.115
-78.63
-79.233
-80.579
-81.698
-81.733
-80.252
-77.402
-73.846
-70.049
-66.135
-62.537
-60.093
-59.256
-60.112
-62.529
-65.997
-70.064
-74.507
-78.962
-82.959
-86.238
-88.624
-90.015
-90.458
-89.935
-88.417
-85.98
-82.753
-78.894
-74.558
-69.852
-64.873
-59.744
-54.564
-49.404
-44.3
-39.236
-34.203
-29.214
-24.283
-19.44
-14.692
-10.023
-5.408
-0.803
3.834
8.536
13.345
18.308
23.454
28.802
34.358
40.102
46.021
52.107
58.353
64.756
71.308
77.996
84.808
91.726
98.733
105.808
112.929
120.065
127.19
134.277
141.299
148.233
155.054
161.733
168.241
174.548
180.623
186.435
191.951
197.139
201.966
206.401
210.414
213.978
217.068
219.658
221.726
223.251
224.217
224.607
224.408
223.61
222.205
220.188
217.556
214.311
210.456
205.998
200.946
195.313
189.115
182.372
175.104
167.337
159.099
150.418
141.327
131.86
122.051
111.939
101.563
90.961
80.175
69.246
58.216
47.125
36.015
24.927
13.898
2.969
-7.824
-18.446
-28.863
-39.042
-48.953
-58.568
-67.861
-76.809
-85.39
-93.585
-101.379
-108.757
-115.709
-122.226
-128.303
-133.937
-139.127
-143.877
-148.19
-152.073
-155.535
-158.587
-161.241
-163.513
-165.418
-166.974
-168.198
-169.111
-169.733
-170.085
-170.188
-170.065
-169.737
-169.225
-168.551
-167.736
-166.802
-165.767
-164.651
-163.474
-162.253
-161.004
-159.744
-158.488
-157.248
-156.037
-154.866
-153.745
-152.682
-151.685
-150.759
-149.909
-149.14
-148.455
-147.855
-147.343
-146.919
-146.582
-146.332
-146.167
-146.085
-146.083
-146.16
-146.312
-146.535
-146.828
-147.185
-147.605
-148.084
-148.618
-149.204
-149.839
-150.52
-151.243
-152.006
-152.806
-153.641
-154.508
-155.406
-156.333
-157.286
-158.264
-159.267
-160.291
-161.335
-162.396
-163.473
-164.563
-165.662
-166.768
-167.876
-168.982
-170.082
-171.171
-172.244
-173.295
-174.318
-175.306
-176.252
-177.15
-177.991
-178.768
-179.472
-180.095
-180.629
-181.067
-181.4
-181.62
-181.718
-181.688
-181.522
-181.215
-180.76
