Name,Aleksandre Beruashvili
Date of Birth,"Dec 20, 1998"
Recorded Date,2024-05-31 22:26:03 +0400
Classification,Sinus Rhythm
Symptoms,
Software Version,1.90
Device,"Watch7,2"
Sample Rate,512 hertz


Lead,Lead I
Unit,µV

44.998
43.314
41.717
40.21
38.795
37.473
36.243
35.106
34.059
33.098
32.22
31.42
30.693
30.033
29.434
28.888
28.39
27.933
27.51
27.116
26.743
26.386
26.039
25.696
25.353
25.004
24.644
24.268
23.873
23.456
23.013
22.543
22.041
21.507
20.939
20.337
19.698
19.024
18.314
17.567
16.787
15.974
15.132
14.264
13.371
12.458
11.529
10.587
9.635
8.672
7.699
6.714
5.716
4.705
3.679
2.635
1.571
0.489
-0.607
-1.717
-2.838
-3.973
-5.123
-6.29
-7.474
-8.676
-9.897
-11.136
-12.394
-13.666
-14.945
-16.228
-17.515
-18.813
-20.136
-21.496
-22.901
-24.353
-25.848
-27.376
-28.921
-30.462
-31.958
-33.374
-34.675
-35.824
-36.795
-37.557
-38.08
-38.332
-38.27
-37.857
-37.064
-35.886
-34.353
-32.51
-30.415
-28.128
-25.728
-23.315
-21.025
-19.005
-17.402
-16.353
-15.933
-16.243
-17.436
-19.535
-22.462
-25.955
-29.511
-32.647
-35.046
-36.437
-36.56
-35.479
-33.424
-30.917
-28.98
-28.543
-30.26
-34.366
-40.522
-47.617
-54.107
-58.173
-57.358
-49.111
-31.015
-1.436
39.868
91.66
151.75
217.586
285.561
351.129
409.118
454.651
484.289
496.25
489.665
463.912
419.945
360.556
289.99
213.369
135.293
59.42
-10.533
-70.455
-117.703
-151.421
-172.173
-181.93
-182.811
-176.613
-165.902
-154.049
-143.441
-135.349
-130.194
-127.352
-126.164
-126.263
-126.703
-126.048
-123.507
-118.85
-112.308
-104.661
-96.509
-88.191
-80.289
-73.519
-68.178
-64.363
-62.244
-61.675
-62.54
-65.124
-68.352
-71.135
-74.572
-78.811
-85.981
-98.718
-113.639
-128.466
-139.93
-143.608
-143.271
-142.119
-142.351
-147.614
-155.206
-162.42
-168.629
-172.19
-174.093
-175.625
-176.662
-177.491
-178.13
-178.389
-178.47
-178.515
-178.479
-178.348
-178.117
-177.755
-177.255
-176.604
-175.773
-174.728
-173.446
-171.889
-169.995
-167.69
-164.908
-161.604
-157.745
-153.307
-148.27
-142.611
-136.327
-129.43
-121.928
-113.829
-105.144
-95.887
-86.093
-75.819
-65.126
-54.062
-42.665
-30.959
-18.972
-6.736
5.718
18.357
31.172
44.163
57.318
70.61
84.016
97.524
111.153
124.955
138.96
153.162
167.517
181.953
196.405
210.797
225.038
239.01
252.556
265.529
277.814
289.321
299.961
309.626
318.167
325.409
331.214
335.495
338.213
339.357
338.92
336.926
333.441
328.583
322.52
315.398
307.327
298.393
288.683
278.309
267.424
256.195
244.755
233.209
221.639
210.118
198.733
187.525
176.488
165.579
154.73
143.91
133.141
122.445
111.832
101.357
91.099
81.111
71.449
62.13
53.114
44.403
36.044
27.904
19.668
11.304
3.003
-5.163
-12.89
-20.676
-30.015
-40.298
-49.831
-56.04
-54.223
-44.145
-29.3
-13.874
-5.834
-9.761
-24.748
-48.481
-72.915
-88.375
-90.094
-76.504
-52.437
-28.375
-11.663
-5.403
-8.128
-13.438
-16.665
-16.377
-12.805
-8.003
-3.23
1.374
5.642
9.744
13.633
17.048
20.153
22.131
22.42
22.516
22.974
26.152
34.462
45.307
58.021
70.06
76.125
75.613
65.792
45.976
22.637
2.257
-8.148
-3.988
11.669
32.995
56.185
78.708
99.163
114.845
119.875
110.369
88.301
61.672
39.917
27.993
24.952
25.286
24.705
22.558
19.946
18.675
18.928
19.713
20.432
20.748
20.605
19.877
18.319
15.959
13.194
10.428
7.837
5.389
2.939
0.456
-1.996
-4.388
-6.762
-9.192
-11.721
-14.328
-16.95
-19.535
-22.07
-24.562
-27.027
-29.475
-31.904
-34.309
-36.691
-39.049
-41.386
-43.706
-46.013
-48.307
-50.592
-52.872
-55.154
-57.448
-59.756
-62.08
-64.411
-66.747
-69.084
-71.423
-73.762
-76.102
-78.44
-80.775
-83.105
-85.429
-87.745
-90.051
-92.344
-94.618
-96.872
-99.102
-101.308
-103.487
-105.638
-107.758
-109.846
-111.901
-113.92
-115.904
-117.851
-119.76
-121.63
-123.462
-125.256
-127.011
-128.729
-130.411
-132.058
-133.671
-135.25
-136.799
-138.317
-139.807
-141.27
-142.707
-144.121
-145.513
-146.887
-148.244
-149.586
-150.917
-152.238
-153.552
-154.859
-156.163
-157.462
-158.759
-160.053
-161.344
-162.63
-163.91
-165.183
-166.446
-167.697
-168.931
-170.146
-171.337
-172.5
-173.63
-174.72
-175.766
-176.761
-177.701
-178.577
-179.384
-180.115
-180.765
-181.326
-181.79
-182.151
-182.401
-182.533
-182.542
-182.419
-182.159
-181.756
-181.208
-180.51
-179.661
-178.658
-177.503
-176.2
-174.754
-173.169
-171.453
-169.612
-167.652
-165.584
-163.425
-161.174
-158.835
-156.415
-153.918
-151.368
-148.797
-146.207
-143.598
-141.022
-138.521
-136.135
-133.913
-131.84
-129.88
-128.074
-126.495
-125.031
-123.538
-122.119
-120.769
-119.459
-118.536
-117.072
-114.151
-111.03
-108.065
-107.595
-112.433
-119.435
-126.501
-130.497
-127.117
-120.108
-112.656
-106.962
-106.672
-109.193
-111.894
-114.212
-114.6
-114.094
-114.007
-114.185
-114.831
-115.891
-117.128
-118.718
-120.806
-123.357
-126.382
-129.912
-133.889
-138.292
-143.177
-148.494
-154.097
-159.627
-164.399
-167.748
-169.209
-168.399
-164.985
-158.674
-149.474
-138.319
-126.903
-117.072
-109.326
-102.427
-95.504
-89.121
-87.472
-95.717
-113.481
-133.702
-141.622
-121.939
-69.263
11.262
105.168
195.907
273.741
335.721
382.748
415.715
433.226
431.471
407.82
363.685
301.202
224.992
139.788
48.67
-40.714
-121.184
-185.724
-228.452
-252.458
-261.987
-262.175
-259.236
-253.444
-245.987
-239.336
-233.784
-231.411
-233.323
-238.216
-245.374
-253.61
-261.006
-266.556
-269.74
-270.19
-268.269
-264.725
-260.135
-255.163
-250.567
-246.725
-243.819
-241.955
-240.99
-240.716
-240.943
-241.436
-241.996
-242.559
-243.117
-243.644
-244.087
-244.311
-244.184
-243.648
-242.689
-241.326
-239.578
-237.474
-235.069
-232.489
-229.907
-227.431
-225.108
-222.911
-220.761
-218.626
-216.522
-214.474
-212.502
-210.599
-208.735
-206.893
-205.073
-203.249
-201.374
-199.352
-197.051
-194.394
-191.353
-187.94
-184.213
-180.198
-175.892
-171.3
-166.43
-161.29
-155.893
-150.228
-144.258
-137.965
-131.341
-124.406
-117.211
-109.785
-102.132
-94.251
-86.129
-77.777
-69.236
-60.538
-51.696
-42.717
-33.599
-24.36
-15.035
-5.654
3.763
13.219
22.731
32.299
41.907
51.543
61.207
70.934
80.79
90.82
101.026
111.374
121.804
132.263
142.689
153.005
163.104
172.836
182.066
190.686
198.617
205.781
212.072
217.343
221.418
224.161
225.491
225.379
223.818
220.798
216.355
210.576
203.601
195.619
186.78
177.17
166.874
156.006
144.659
132.92
120.909
108.704
96.399
84.151
72.047
60.073
48.362
37.216
26.648
16.503
6.78
-2.862
-11.78
-18.111
-22.321
-26.092
-32.294
-46.193
-67.264
-90.237
-109.803
-118.442
-115.912
-109.227
-103.763
-105.406
-114.945
-127.069
-138.581
-147.225
-152.4
-156.266
-159.763
-162.849
-165.608
-167.726
-169.147
-170.171
-170.9
-171.309
-171.438
-171.328
-170.997
-170.456
-169.704
-168.716
-167.502
-166.108
-164.557
-162.864
-161.046
-159.121
-157.108
-155.035
-152.921
-150.778
-148.624
-146.474
-144.343
-142.243
-140.186
-138.181
-136.236
-134.358
-132.553
-130.825
-129.177
-127.612
-126.131
-124.735
-123.424
-122.197
-121.052
-119.986
-118.997
-118.082
-117.238
-116.461
-115.747
-115.094
-114.499
-113.959
-113.47
-113.029
-112.635
-112.283
-111.97
-111.695
-111.454
-111.245
-111.064
-110.91
-110.781
-110.676
-110.593
-110.532
-110.491
-110.471
-110.47
-110.489
-110.526
-110.583
-110.657
-110.75
-110.86
-110.988
-111.134
-111.295
-111.472
-111.663
-111.866
-112.08
-112.302
-112.528
-112.756
-112.982
-113.203
-113.415
-113.613
-113.793
-113.953
-114.086
-114.19
-114.26
-114.293
-114.283
-114.229
-114.125
-113.968
-113.757
-113.487
-113.157
-112.765
-112.309
-111.787
-111.199
-110.544
-109.821
-109.031
-108.173
-107.249
-106.259
-105.206
-104.093
-102.923
-101.7
-100.429
-99.113
-97.76
-96.373
-94.96
-93.526
-92.077
-90.62
-89.16
-87.705
-86.26
-84.831
-83.425
-82.047
-80.702
-79.395
-78.129
-76.909
-75.736
-74.615
-73.546
-72.534
-71.579
-70.683
-69.848
-69.076
-68.367
-67.722
-67.14
-66.62
-66.16
-65.757
-65.409
-65.112
-64.862
-64.654
-64.484
-64.347
-64.24
-64.156
-64.09
-64.036
-63.989
-63.943
-63.893
-63.834
-63.76
-63.668
-63.554
-63.416
-63.25
-63.055
-62.828
-62.566
-62.265
-61.924
-61.538
-61.103
-60.613
-60.065
-59.457
-58.785
-58.049
-57.247
-56.381
-55.452
-54.463
-53.418
-52.315
-51.154
-49.933
-48.65
-47.303
-45.889
-44.405
-42.849
-41.222
-39.526
-37.767
-35.947
-34.065
-32.117
-30.091
-27.984
-25.801
-23.543
-21.221
-18.852
-16.461
-14.087
-11.775
-9.552
-7.438
-5.437
-3.535
-1.726
0
1.66
3.252
4.777
6.246
7.656
9.014
10.354
11.72
13.19
14.856
16.768
18.951
21.409
24.094
26.952
29.909
32.864
35.741
38.483
41.031
43.352
45.411
47.137
48.447
49.231
49.35
48.716
47.28
45.023
42.001
38.309
34.078
29.485
24.685
19.795
14.925
10.161
5.568
1.231
-2.756
-6.294
-9.247
-11.509
-13.023
-13.764
-13.776
-13.176
-12.113
-10.766
-9.302
-7.816
-6.412
-5.2
-4.259
-3.668
-3.459
-3.58
-4.054
-4.984
-6.331
-7.925
-9.351
-9.874
-8.979
-6.488
-2.282
3.725
11.595
21.289
32.047
42.301
50.907
57.57
62.784
67.53
72.416
78.086
86.243
99.777
121.439
152.595
192.632
239.835
292.933
350.052
407.927
461.807
505.894
536.705
554.123
558.037
546.925
517.106
463.972
388.566
299.707
211.831
139.855
91.88
66.721
55.09
47.072
37.88
27.793
21.554
22.462
29.329
38.98
47.756
53.623
56.69
57.874
57.887
57.311
57.093
58.035
60.61
64.995
70.82
77.552
84.884
92.481
99.906
106.899
113.3
119.065
124.358
129.36
134.22
139.102
144.124
149.312
154.64
160.06
165.552
171.114
176.712
182.255
187.573
192.514
196.972
200.832
203.985
206.3
207.612
207.824
206.946
205.035
202.212
198.635
194.414
189.689
184.649
179.473
174.377
169.535
165.05
161.055
157.687
155.093
153.459
152.892
153.405
155.005
157.635
161.17
165.505
170.459
175.809
181.441
187.268
193.248
199.47
205.969
212.684
219.543
226.425
233.188
239.702
245.773
251.062
255.186
258.345
261.301
264.559
268.704
273.401
276.623
278.506
280.679
284.972
296.705
316.7
338.809
356.223
355.811
328.149
278.439
217.036
163.202
137.439
143.897
177.799
228.088
280.3
328.824
372.899
409.506
433.814
439.723
423.078
387.531
342.854
299.497
266.322
246.67
240.355
244.356
252.167
259.011
260.609
255.612
247.626
239.248
232.212
226.726
220.696
213.213
204.401
194.603
184.531
174.181
163.079
151.273
137.805
121.894
104.895
87.192
71.174
59.726
49.889
39.885
26.906
6.742
-16.864
-40.499
-61.833
-77.066
-88.224
-98.665
-109.731
-121.675
-133.165
-140.653
-141.568
-138.912
-134.92
-133.05
-137.55
-144.686
-151.448
-155.789
-154.224
-149.483
-144.325
-139.442
-136.525
-134.739
-132.933
-131.366
-129.921
-128.651
-127.749
-126.988
-126.138
-125.184
-124.1
-122.839
-121.378
-119.688
-117.739
-115.551
-113.163
-110.58
-107.806
-104.857
-101.744
-98.507
-95.197
-91.865
-88.572
-85.364
-82.273
-79.33
-76.558
-73.973
-71.591
-69.41
-67.417
-65.604
-63.959
-62.471
-61.135
-59.935
-58.856
-57.881
-56.995
-56.185
-55.447
-54.772
-54.15
-53.566
-53.002
-52.441
-51.885
-51.334
-50.792
-50.275
-49.794
-49.364
-49.015
-48.762
-48.611
-48.555
-48.57
-48.628
-48.721
-48.847
-49.022
-49.262
-49.56
-49.912
-50.315
-50.736
-51.142
-51.487
-51.696
-51.716
-51.53
-51.136
-50.568
-49.888
-49.136
-48.353
-47.58
-46.842
-46.19
-45.679
-45.349
-45.288
-45.593
-46.364
-47.74
-49.832
-52.701
-56.406
-60.972
-66.363
-72.543
-79.454
-87.006
-95.132
-103.737
-112.704
-121.92
-131.218
-140.424
-149.38
-157.907
-165.844
-173.06
-179.413
-184.768
-189.066
-192.265
-194.36
-195.385
-195.357
-194.323
-192.368
-189.6
-186.172
-182.226
-177.875
-173.227
-168.388
-163.457
-158.553
-153.8
-149.266
-145.003
-141.044
-137.4
-134.091
-131.118
-128.441
-125.996
-123.692
-121.461
-119.263
-117.074
-114.869
-112.621
-110.29
-107.844
-105.274
-102.58
-99.761
-96.821
-93.759
-90.589
-87.345
-84.074
-80.829
-77.647
-74.546
-71.537
-68.629
-65.828
-63.144
-60.58
-58.127
-55.785
-53.557
-51.446
-49.454
-47.571
-45.772
-44.038
-42.355
-40.717
-39.13
-37.61
-36.178
-34.876
-33.75
-32.832
-32.151
-31.711
-31.487
-31.462
-31.616
-31.929
-32.415
-33.073
-33.881
-34.834
-35.907
-37.051
-38.204
-39.247
-40.03
-40.447
-40.425
-39.939
-39.045
-37.801
-36.286
-34.615
-32.865
-31.128
-29.517
-28.105
-26.951
-26.164
-25.865
-26.263
-27.645
-30.223
-34.147
-39.505
-46.264
-54.361
-63.688
-74.03
-85.169
-96.875
-108.896
-121.058
-133.238
-145.268
-156.969
-168.084
-178.253
-187.208
-194.74
-200.688
-205
-207.639
-208.624
-208.14
-206.441
-203.792
-200.483
-196.7
-192.554
-188.279
-184.158
-180.438
-177.361
-175.03
-173.445
-172.684
-172.874
-173.845
-175.096
-176.396
-177.79
-179.386
-181.633
-183.942
-184.526
-183.799
-183.341
-185.66
-195.108
-211.003
-229.014
-244.223
-248.677
-238.367
-214.131
-179.352
-143.024
-115.282
-103.104
-108.941
-130.347
-162.269
-198.892
-235.963
-267.595
-285.276
-284.864
-266.196
-235.552
-205.871
-184.797
-174.269
-171.97
-171.094
-168.694
-165.479
-162.415
-161.174
-161.403
-161.019
-158.028
-150.135
-134.829
-109.537
-72.573
-23.693
35.129
100.105
167.472
233.898
298.052
359.104
413.912
457.668
482.007
477.894
441.656
373.619
280.223
173.438
65.807
-28.47
-98.051
-138.333
-152.404
-151.409
-146.387
-144.173
-145.61
-145.686
-141.678
-134.37
-125.92
-119.962
-117.82
-118.162
-119.796
-121.428
-121.72
-120.109
-116.278
-110.013
-101.75
-92.292
-82.255
-72.269
-62.989
-54.738
-47.724
-42.089
-37.734
-34.499
-32.249
-30.777
-29.881
-29.44
-29.323
-29.401
-29.553
-29.593
-29.372
-28.795
-27.79
-26.33
-24.396
-21.965
-19.052
-15.702
-11.962
-7.887
-3.522
1.107
5.954
10.961
16.067
21.2
26.308
31.363
36.343
41.236
46.04
50.752
55.384
59.96
64.5
69.018
73.528
78.038
82.563
87.124
91.743
96.439
101.23
106.133
111.157
116.318
121.625
127.092
132.734
138.559
144.569
150.763
157.137
163.681
170.381
177.21
184.131
191.11
198.115
205.117
212.098
219.04
225.929
232.748
239.474
246.099
252.636
259.106
265.537
271.964
278.42
284.957
291.649
298.552
305.704
313.125
320.804
328.715
336.815
345.052
353.364
361.655
369.8
377.655
385.057
391.846
397.874
402.973
406.957
409.667
410.973
410.783
409.047
405.741
400.867
394.453
386.553
377.265
366.72
355.079
342.531
329.256
315.419
301.201
286.787
272.344
258.018
243.929
230.165
216.796
203.873
191.434
179.514
168.138
157.306
146.98
137.077
127.528
118.315
109.404
100.695
92.051
83.346
74.536
65.699
56.923
48.192
39.575
31.406
24.069
17.758
12.45
7.869
4.505
3.962
7.088
12.686
16.276
11.785
-3.834
-27.76
-51.585
-66.615
-68.258
-58.355
-43.058
-26.156
-9.525
6.451
21.209
29.364
26.141
10.931
-13.561
-38.433
-54.226
-57.062
-45.989
-25.986
-5.86
9.374
16.157
14.815
10.333
5.795
3.39
3.812
5.058
6.033
6.471
6.362
6.442
6.881
7.102
6.951
6.871
7.649
10.34
15.143
21.203
27.965
35.252
42.749
49.995
55.513
58.102
58.807
57.934
55.042
48.45
33.068
9.598
-14.659
-32.61
-34.833
-19.059
5.88
34.133
60.347
79.45
94.456
104.472
105.712
100.736
90.143
76.433
64.874
54.431
43.952
33.838
23.817
16.778
15.057
18.034
24.56
32.804
41.42
50.137
58.397
64.968
68.706
69.275
67.221
63.755
59.751
55.457
51.005
46.637
42.808
39.856
37.697
35.877
34.008
31.951
29.732
27.476
25.194
22.81
20.318
17.775
15.262
12.836
10.497
8.191
5.876
3.538
1.185
-1.159
-3.479
-5.775
-8.049
-10.304
-12.537
-14.737
-16.898
-19.012
-21.076
-23.085
-25.03
-26.897
-28.671
-30.343
-31.905
-33.357
-34.695
-35.918
-37.029
-38.029
-38.918
-39.692
-40.341
-40.862
-41.258
-41.538
-41.708
-41.776
-41.757
-41.681
-41.593
-41.537
-41.541
-41.616
-41.76
-41.975
-42.267
-42.642
-43.105
-43.631
-44.194
-44.781
-45.386
-46.01
-46.628
-47.172
-47.544
-47.657
-47.461
-46.936
-46.082
-44.879
-43.325
-41.448
-39.303
-37.004
-34.647
-32.285
-29.962
-27.723
-25.65
-23.894
-22.645
-22.059
-22.269
-23.384
-25.498
-28.735
-33.172
-38.812
-45.601
-53.417
-62.163
-71.797
-82.277
-93.524
-105.415
-117.756
-130.301
-142.844
-155.151
-166.957
-178.016
-188.042
-196.797
-204.139
-209.974
-214.244
-216.89
-217.813
-216.919
-214.191
-209.654
-203.384
-195.523
-186.202
-175.625
-164.078
-151.845
-139.239
-126.56
-114.041
-101.902
-90.385
-79.701
-70.071
-61.722
-54.802
-49.429
-45.695
-43.624
-43.215
-44.395
-46.994
-50.831
-55.705
-61.399
-67.719
-74.458
-81.361
-88.211
-94.808
-100.95
-106.483
-111.271
-115.186
-118.162
-120.182
-121.299
-121.625
-121.289
-120.425
-119.161
-117.644
-116.063
-114.634
-113.566
-113.029
-113.131
-113.979
-115.723
-118.39
-121.863
-125.836
-129.755
-133.081
-135.449
-136.544
-136.102
-134.164
-130.951
-126.988
-123.285
-120.774
-120.107
-121.519
-124.683
-128.562
-131.762
-132.587
-128.719
-117.783
-97.548
-66.609
-24.945
26.118
84.433
147.476
211.761
273.01
326.341
367.347
393.234
402.682
395.266
370.837
330.37
276.479
213.31
145.526
76.906
10.482
-50.892
-104.007
-146.132
-176.188
-194.778
-203.486
-203.79
-197.044
-184.948
-170.045
-155.18
-142.189
-131.772
-123.935
-118.528
-115.493
-114.622
-115.091
-115.661
-115.579
-114.676
-113.126
-111.292
-109.411
-107.606
-106.196
-105.663
-106.264
-108.029
-110.818
-114.329
-118.303
-122.567
-126.913
-131.114
-135.011
-138.48
-141.451
-143.93
-145.915
-147.4
-148.394
-148.902
-148.944
-148.566
-147.815
-146.739
-145.4
-143.854
-142.157
-140.37
-138.532
-136.667
-134.789
-132.898
-130.99
-129.056
-127.082
-125.053
-122.952
-120.764
-118.469
-116.053
-113.497
-110.781
-107.885
-104.785
-101.464
-97.907
-94.103
-90.039
-85.709
-81.103
-76.218
-71.051
-65.599
-59.858
-53.826
-47.503
-40.89
-33.99
-26.811
-19.359
-11.647
-3.688
4.503
12.906
21.501
30.265
39.176
48.206
57.329
66.515
75.732
84.947
94.125
103.229
112.221
121.06
129.704
138.11
146.237
154.04
161.479
168.51
175.093
181.187
186.758
191.769
196.185
199.97
203.093
205.521
207.228
208.188
208.375
207.767
206.345
204.093
201.002
197.063
192.266
186.602
180.06
172.641
164.36
155.238
145.303
134.593
123.151
111.036
98.325
85.086
71.381
57.267
42.789
28.006
12.99
-2.192
-17.471
-32.797
-48.137
-63.464
-78.752
-94.001
-109.231
-124.478
-139.808
-155.251
-170.795
-186.418
-202.067
-217.701
-233.298
-248.806
-264.157
-279.272
-294.046
-308.374
-322.157
-335.233
-347.399
-358.44
-368.116
-376.252
-382.738
-387.472
-390.396
-391.454
-390.579
-387.749
-382.982
-376.279
-367.669
-357.195
-344.893
-330.903
-315.439
-298.72
-280.997
-262.475
-243.311
-223.687
-203.77
-183.716
-163.705
-143.891
-124.417
-105.482
-87.273
-69.961
-53.727
-38.653
-24.751
-12.037
-0.498
9.874
19.069
27.12
34.072
39.952
44.818
48.738
51.797
54.155
55.97
57.381
58.541
59.545
60.45
61.326
62.218
63.157
64.181
65.305
66.529
67.882
69.372
70.992
72.72
74.484
76.224
77.9
79.47
80.916
82.235
83.42
84.482
85.452
86.356
87.223
88.088
88.965
89.876
90.852
91.927
93.147
94.552
96.164
98.002
100.077
102.393
104.951
107.741
110.736
113.915
117.254
120.729
124.322
128.006
131.755
135.539
139.329
143.094
146.809
150.447
153.983
157.393
160.653
163.745
166.652
169.358
171.845
174.099
176.103
177.846
179.315
180.501
181.394
181.988
182.277
182.258
181.932
181.299
180.362
179.125
177.595
175.781
173.691
171.338
168.735
165.895
162.834
159.569
156.117
152.496
148.724
144.82
140.802
136.69
132.501
128.255
123.968
119.658
115.341
111.032
106.746
102.496
98.294
94.151
90.079
86.086
82.182
78.373
74.665
71.063
67.57
64.188
60.919
57.761
54.714
51.774
48.938
46.202
43.559
41.004
38.53
36.127
33.787
31.502
29.261
27.055
24.874
22.708
20.549
18.388
16.219
14.033
11.824
9.588
7.32
5.018
2.679
0.298
-2.127
-4.595
-7.108
-9.664
-12.261
-14.898
-17.568
-20.264
-22.974
-25.688
-28.398
-31.092
-33.761
-36.391
-38.97
-41.484
-43.922
-46.276
-48.531
-50.667
-52.664
-54.499
-56.162
-57.656
-58.979
-60.124
-61.089
-61.873
-62.481
-62.927
-63.209
-63.305
-63.198
-62.866
-62.304
-61.532
-60.563
-59.415
-58.094
-56.583
-54.88
-53.002
-50.951
-48.72
-46.298
-43.651
-40.793
-37.794
-34.715
-31.622
-28.557
-25.53
-22.565
-19.692
-16.948
-14.388
-12.045
-9.924
-8.057
-6.5
-5.314
-4.591
-4.358
-4.565
-5.169
-6.13
-7.419
-9.03
-10.93
-13.054
-15.334
-17.714
-20.148
-22.62
-25.08
-27.443
-29.611
-31.475
-32.972
-34.113
-34.901
-35.326
-35.395
-35.139
-34.626
-33.976
-33.293
-32.624
-32.019
-31.55
-31.319
-31.472
-32.16
-33.47
-35.467
-38.23
-41.722
-45.83
-50.306
-54.665
-58.396
-61.101
-62.457
-62.229
-60.544
-57.705
-54.088
-50.452
-47.469
-45.56
-45
-45.653
-46.515
-46.117
-43.115
-35.855
-22.767
-2.456
26.555
64.975
111.995
165.76
224.448
285.966
347.69
406.309
457.587
497.588
523.817
535.008
529.905
507.31
467.418
412.233
345.431
271.456
194.571
118.575
47.598
-13.408
-61.98
-98.744
-123.558
-136.601
-137.016
-121.259
-92.957
-61.531
-35.459
-24.464
-29.368
-42.042
-55.943
-64.073
-64.34
-60.774
-55.77
-51.342
-48.033
-43.954
-38.746
-32.853
-26.724
-21.674
-17.27
-12.508
-8.511
-5.463
-5.407
-10.891
-18.745
-26.803
-31.977
-30.074
-24.587
-18.486
-13.812
-13.998
-16.547
-18.923
-20.551
-19.912
-17.944
-15.85
-13.464
-10.98
-8.348
-5.371
-2.248
0.848
3.894
6.861
9.715
12.446
15.06
17.563
19.982
22.365
24.74
27.128
29.564
32.072
34.673
37.396
40.269
43.319
46.579
50.076
53.832
57.873
62.219
66.89
71.901
77.264
82.984
89.066
95.516
102.337
109.526
117.079
124.986
133.235
141.815
150.708
159.895
169.353
179.056
188.977
199.091
209.365
219.765
230.25
240.779
251.305
261.785
272.169
282.405
292.442
302.228
311.716
320.862
329.621
337.941
345.772
353.058
359.75
365.814
371.214
375.918
379.906
383.168
385.708
387.555
388.722
389.209
389.013
388.112
386.495
384.155
381.084
377.275
372.721
367.411
361.348
354.551
347.014
338.723
329.636
319.678
308.815
297.06
284.443
271.029
256.9
242.141
226.875
211.253
195.405
179.46
163.524
147.671
132.016
116.689
101.837
87.658
74.316
61.916
50.546
40.243
30.984
22.745
15.485
9.055
3.281
-1.97
-6.817
-11.295
-15.374
-19.104
-22.666
-26.091
-29.129
-31.743
-34.065
-36.084
-38.156
-39.675
-38.716
-35.612
-32.15
-31.372
-38.503
-53.032
-69.666
-82.726
-85.334
-77.918
-66.493
-56.208
-50.78
-48.692
-46.715
-42.774
-38.898
-39.049
-44.12
-54.754
-65.743
-71.632
-71.588
-63.945
-53.242
-44.224
-38.076
-37.176
-39.24
-41.564
-43.647
-44.135
-43.722
-43.421
-43.066
-42.817
-42.571
-42.093
-41.539
-41.036
-40.573
-40.171
-39.834
-39.545
-39.296
-39.08
-38.873
-38.648
-38.407
-38.154
-37.887
-37.61
-37.326
-37.033
-36.732
-36.426
-36.124
-35.823
-35.511
-35.165
-34.763
-34.3
-33.801
-33.275
-32.708
-32.117
-31.561
-31.127
-30.905
-30.916
-31.095
-31.405
-31.899
-32.49
-32.896
-32.895
-32.405
-31.503
-30.55
-28.917
-24.943
-18.221
-9.856
-3.843
-6.058
-18.636
-38.367
-57.674
-67.636
-63.324
-47.754
-28.023
-10.618
-1.859
-1.604
-6.867
-16.917
-26.831
-34.307
-39.266
-39.355
-36.911
-34.248
-31.713
-30.845
-31.051
-31.314
-31.669
-31.812
-31.891
-32.108
-32.278
-32.551
-32.023
-29.874
-27.386
-24.989
-24.971
-30.006
-37.082
-44.235
-48.625
-46.132
-39.977
-33.093
-27.649
-27.017
-29.104
-30.802
-29.476
-24.01
-17.221
-13.339
-18.077
-31.381
-47.188
-59.361
-59.646
-47.411
-30.612
-15.437
-8.521
-11.198
-17.497
-23.702
-27.321
-27.506
-26.693
-26.039
-25.448
-25.017
-24.383
-23.446
-22.541
-21.776
-21.097
-20.512
-20.041
-19.671
-19.393
-19.177
-18.97
-18.754
-18.556
-18.386
-18.241
-18.123
-18.028
-17.958
-17.921
-17.915
-17.938
-17.985
-18.053
-18.14
-18.243
-18.36
-18.487
-18.621
-18.759
-18.896
-19.028
-19.152
-19.261
-19.352
-19.418
-19.453
-19.451
-19.405
-19.309
-19.157
-18.943
-18.66
-18.304
-17.868
-17.348
-16.739
-16.035
-15.233
-14.329
-13.32
-12.204
-10.981
-9.649
-8.21
-6.665
-5.017
-3.27
-1.428
0.503
2.517
4.61
6.772
8.995
11.269
13.583
15.927
18.286
20.646
22.989
25.298
27.554
29.741
31.84
33.832
35.699
37.426
38.999
40.407
41.634
42.667
43.491
44.091
44.454
44.569
44.426
44.016
43.335
42.381
41.16
39.672
37.919
35.899
33.601
31.019
28.155
25.013
21.603
17.951
14.086
10.051
5.901
1.683
-2.559
-6.784
-10.957
-15.039
-18.984
-22.759
-26.314
-29.597
-32.573
-35.212
-37.508
-39.507
-41.264
-42.846
-44.338
-45.804
-47.31
-48.934
-50.755
-52.865
-55.365
-58.311
-61.768
-65.83
-70.515
-75.773
-81.359
-86.756
-91.417
-94.886
-96.822
-97.079
-95.679
-92.612
-88.428
-84.365
-81.493
-80.952
-82.512
-83.882
-84.188
-83.662
-83.268
-86.041
-89.384
-85.2
-66.445
-25.25
37.895
113.146
192.086
265.04
326.095
375.726
412.752
436.213
445.434
437.525
410.811
366.238
306.289
235.274
158.19
79.195
1.789
-70.22
-132.545
-182.268
-218.153
-240.343
-250.475
-250.474
-242.169
-228.417
-213.001
-198.737
-187.345
-179.682
-175.498
-174.377
-175.986
-179.212
-182.314
-184.155
-184.204
-182.422
-179.336
-175.41
-170.931
-166.44
-162.663
-160.047
-158.802
-158.91
-160.09
-162.103
-164.792
-167.955
-171.375
-174.874
-178.271
-181.402
-184.195
-186.592
-188.541
-190.019
-190.997
-191.456
-191.421
-190.944
-190.082
-188.896
-187.441
-185.755
-183.892
-181.911
-179.878
-177.862
-175.914
-174.061
-172.328
-170.73
-169.283
-167.995
-166.859
-165.855
-164.966
-164.179
-163.484
-162.878
-162.347
-161.875
-161.444
-161.04
-160.65
-160.263
-159.868
-159.45
-159
-158.509
-157.969
-157.374
-156.718
-155.989
-155.178
-154.274
-153.267
-152.149
-150.909
-149.54
-148.033
-146.383
-144.585
-142.637
-140.538
-138.285
-135.88
-133.325
-130.624
-127.782
-124.806
-121.704
-118.485
-115.163
-111.749
-108.259
-104.708
-101.114
-97.494
-93.868
-90.256
-86.679
-83.157
-79.712
-76.365
-73.139
-70.057
-67.139
-64.408
-61.885
-59.591
-57.546
-55.77
-54.282
-53.096
-52.23
-51.696
-51.506
-51.672
-52.201
-53.101
-54.374
-56.025
-58.054
-60.458
-63.234
-66.376
-69.875
-73.72
-77.9
-82.399
-87.202
-92.29
-97.645
-103.244
-109.068
-115.091
-121.291
-127.641
-134.116
-140.688
-147.332
-154.018
-160.72
-167.409
-174.058
-180.639
-187.126
-193.492
-199.713
-205.764
-211.62
-217.261
-222.664
-227.81
-232.68
-237.257
-241.526
-245.472
-249.083
-252.349
-255.26
-257.81
-259.991
-261.801
-263.234
-264.291
-264.969
-265.271
-265.199
-264.756
-263.947
-262.778
-261.256
-259.389
-257.187
-254.658
-251.813
-248.664
-245.222
-241.498
-237.506
-233.26
-228.771
-224.056
-219.127
-214.001
-208.691
-203.213
-197.583
-191.815
-185.926
-179.932
-173.848
-167.691
-161.477
-155.223
-148.945
-142.66
-136.385
-130.136
-123.929
-117.779
-111.704
-105.718
-99.836
-94.073
-88.444
-82.963
-77.644
-72.5
-67.544
-62.788
-58.244
-53.921
-49.829
-45.979
-42.376
-39.029
-35.943
-33.124
-30.574
-28.296
-26.29
-24.557
-23.094
-21.898
-20.964
-20.285
-19.854
-19.662
-19.698
-19.952
-20.412
-21.065
-21.896
-22.89
-24.033
-25.307
-26.697
-28.184
-29.751
-31.38
-33.052
-34.751
-36.458
-38.156
-39.826
-41.453
-43.019
-44.51
-45.908
-47.202
-48.376
-49.42
-50.322
-51.074
-51.668
-52.097
-52.358
-52.446
-52.36
-52.099
-51.664
-51.057
-50.282
-49.342
-48.243
-46.991
-45.595
-44.063
-42.403
-40.627
-38.743
-36.764
-34.7
-32.563
-30.364
-28.116
-25.83
-23.519
-21.196
-18.872
-16.559
-14.269
-12.013
-9.801
-7.642
-5.546
-3.52
-1.571
0.294
2.071
3.755
5.34
6.826
8.208
9.486
10.658
11.725
12.687
13.544
14.297
14.949
15.502
15.957
16.316
16.58
16.751
16.837
16.843
16.774
16.636
16.425
16.147
15.815
15.426
14.968
14.437
13.813
13.097
12.331
11.526
10.664
9.781
8.933
8.15
7.504
7.013
6.564
6.116
5.737
5.295
4.516
3.412
2.038
0.301
-1.298
-3.29
-7.654
-13.795
-20.02
-23.68
-18.397
-4.021
12.8
26.217
26.038
9.444
-13.103
-33.914
-43.582
-37.048
-23.676
-9.979
-0.604
0.149
-2.767
-5.696
-8.063
-8.119
-7.187
-6.577
-5.755
-4.808
-3.701
-2.169
-0.372
1.543
3.601
5.779
8.001
10.253
12.559
14.922
17.35
19.862
22.429
25.029
27.66
30.309
32.958
35.593
38.198
40.76
43.269
45.715
48.084
50.366
52.547
54.616
56.564
58.376
60.042
61.55
62.892
64.062
65.054
65.861
66.472
66.876
67.066
67.045
66.815
66.384
65.763
64.972
64.042
63.021
61.952
60.881
59.852
58.904
58.086
57.444
57.018
56.843
56.941
57.325
57.996
58.943
60.132
61.508
62.997
64.498
65.903
67.101
67.97
68.399
68.291
67.563
66.168
64.093
61.339
57.933
53.945
49.452
44.585
39.522
34.457
29.667
25.508
22.334
20.558
20.665
23.011
27.838
35.199
44.806
56.328
69.576
84.251
99.86
116.072
132.889
151.084
172.174
197.364
226.281
257.401
289.865
323.765
361.793
407.088
458.167
508.861
547.515
561.529
544.683
499.382
436.58
368.942
304.921
246.735
191.325
136.996
85.654
40.986
7.031
-14.986
-26.658
-29.829
-26.33
-18.082
-7.229
3.916
13.76
21.749
28.109
33.267
37.513
41.314
45.539
50.983
57.96
66.351
75.688
85.418
95.152
104.473
112.803
119.696
124.896
128.291
129.955
130.041
128.671
126.039
122.416
118.063
113.281
108.356
103.464
98.748
94.322
90.261
86.64
83.537
80.992
79.044
77.75
77.143
77.239
78.024
79.435
81.371
83.701
86.299
89.071
91.954
94.911
97.923
100.98
104.081
107.241
110.472
113.762
117.101
120.479
123.898
127.385
130.98
134.738
138.707
142.929
147.437
152.251
157.385
162.844
168.62
174.701
181.075
187.739
194.689
201.926
209.443
217.229
225.269
233.545
242.035
250.716
259.562
268.548
277.649
286.841
296.103
305.411
314.743
324.072
333.372
342.611
351.761
360.789
369.662
378.347
386.812
395.025
402.954
410.571
417.847
424.752
431.262
437.35
442.992
448.167
452.854
457.033
460.688
463.805
466.371
468.376
469.813
470.676
470.962
470.67
469.803
468.363
466.358
463.794
460.683
457.035
452.867
448.194
443.034
437.408
431.338
424.847
417.959
410.7
403.096
395.174
386.959
378.479
369.761
360.832
351.719
342.451
333.054
323.55
313.962
304.314
294.629
284.932
275.241
265.567
255.938
246.391
236.956
227.664
218.525
209.529
200.694
192.054
183.58
175.207
166.879
158.554
150.262
142.088
134.025
126.02
118.229
110.997
104.446
98.501
93.112
87.948
83.686
82.013
82.185
82.503
80.36
70.634
54.055
35.012
16.441
6.042
6.192
13.353
28.401
45.22
56.725
61.878
55.088
38.009
19.496
3.824
-3.06
0.064
6.976
14.229
19.317
21.197
22.299
23.802
25.615
27.811
30.016
32.141
34.539
37.35
40.522
44.041
47.905
52.087
56.553
61.253
66.092
71.015
76.002
81
85.947
90.786
95.458
99.929
104.179
108.177
111.896
115.303
118.377
121.126
123.562
125.69
127.535
129.122
130.497
131.759
132.999
134.302
135.759
137.404
139.244
141.288
143.511
145.872
148.309
150.699
152.897
154.781
156.209
157.036
157.102
156.162
153.973
150.317
144.975
137.804
128.725
117.671
104.631
89.667
72.877
54.451
34.654
13.72
-8.094
-30.503
-53.21
-75.824
-97.923
-119.135
-139.094
-157.494
-174.108
-188.715
-201.153
-211.356
-219.306
-225.072
-228.819
-230.698
-230.877
-229.586
-227.065
-223.627
-219.636
-215.397
-211.189
-207.253
-203.773
-200.923
-198.847
-197.608
-197.226
-197.669
-198.843
-200.654
-202.995
-205.7
-208.586
-211.443
-214.024
-216.13
-217.627
-218.425
-218.487
-217.818
-216.434
-214.391
-211.801
-208.789
-205.537
-202.28
-199.238
-196.658
-194.811
-193.924
-194.3
-196.329
-200.129
-205.59
-212.578
-220.813
-230.24
-241.153
-253.499
-266.883
-281.276
-296.826
-313.724
-332.452
-352.649
-372.969
-392.539
-410.882
-427.26
-441.026
-451.332
-456.856
-457.473
-454.344
-448.252
-439.775
-429.555
-417.932
-405.623
-393.903
-383.169
-372.93
-362.945
-353.038
-343.15
-333.56
-324.262
-314.883
-305.43
-296.245
-287.549
-279.545
-272.294
-265.625
-259.46
-253.829
-248.649
-243.777
-239.089
-234.448
-229.783
-225.112
-220.439
-215.764
-211.108
-206.494
-201.958
-197.557
-193.334
-189.317
-185.534
-182
-178.73
-175.73
-172.996
-170.516
-168.264
-166.207
-164.305
-162.517
-160.802
-159.115
-157.408
-155.636
-153.77
-151.802
-149.77
-147.746
-145.807
-144.06
-142.588
-141.449
-140.756
-140.611
-141.111
-142.356
-144.373
-147.116
-150.62
-154.967
-160.077
-165.832
-171.882
-177.546
-182.377
-186.143
-188.589
-189.518
-188.796
-186.152
-181.705
-176.643
-172.011
-168.018
-164.559
-160.144
-152.391
-141.26
-127.159
-110.466
-93.813
-75.891
-52.829
-20.819
26.894
92.28
171.886
258.469
339.741
403.354
438.361
439.243
406.568
347.642
276.3
203.171
135.164
74.505
17.66
-35.407
-81.528
-118.013
-141.57
-151.867
-152.014
-144.7
-132.526
-118.667
-105.476
-94.498
-86.898
-82.721
-81.02
-81.051
-81.901
-82.155
-80.922
-77.769
-72.485
-65.468
-57.365
-48.649
-39.91
-31.843
-24.832
-19.102
-14.754
-11.647
-9.632
-8.592
-8.348
-8.717
-9.556
-10.728
-12.114
-13.606
-15.092
-16.479
-17.702
-18.719
-19.517
-20.088
-20.436
-20.59
-20.588
-20.476
-20.302
-20.094
-19.89
-19.729
-19.664
-19.76
-20.059
-20.565
-21.279
-22.193
-23.299
-24.618
-26.135
-27.789
-29.569
-31.509
-33.632
-35.968
-38.503
-41.13
-43.793
-46.543
-49.276
-51.672
-53.627
-55.214
-56.371
-57.384
-57.702
-55.447
-50.895
-45.79
-42.84
-47.317
-59.186
-73.055
-83.659
-83.509
-71.721
-55.455
-40.276
-32.071
-32.199
-35.34
-38.13
-38.4
-35.364
-31.2
-26.986
-22.652
-18.308
-13.66
-8.632
-3.548
1.467
6.435
11.32
16.075
20.682
25.122
29.391
33.509
37.463
41.202
44.689
47.902
50.814
53.405
55.654
57.533
59.026
60.121
60.808
61.08
60.931
60.357
59.357
57.933
56.091
53.837
51.183
48.14
44.723
40.951
36.843
32.422
27.713
22.742
17.536
12.127
6.545
0.824
-5.004
-10.904
-16.839
-22.776
-28.677
-34.508
-40.233
-45.819
-51.232
-56.441
-61.414
-66.124
-70.543
-74.646
-78.41
-81.814
-84.839
-87.47
-89.692
-91.495
-92.87
-93.812
-94.317
-94.386
-94.022
-93.231
-92.021
-90.403
-88.393
-86.006
-83.262
-80.183
-76.793
-73.119
-69.187
-65.029
-60.676
-56.159
-51.512
-46.77
-41.966
-37.135
-32.311
-27.53
-22.824
-18.227
-13.772
-9.491
-5.412
-1.566
2.019
5.319
8.308
10.965
13.27
15.205
16.754
17.904
18.646
18.971
18.875
18.355
17.412
16.05
14.275
12.095
9.522
6.57
3.254
-0.407
-4.392
-8.681
-13.249
-18.071
-23.122
-28.374
-33.8
-39.369
-45.054
-50.824
-56.649
-62.5
-68.345
-74.155
-79.901
-85.552
-91.082
-96.461
-101.663
-106.664
-111.439
-115.965
-120.221
-124.189
-127.851
-131.192
-134.197
-136.856
-139.159
-141.099
-142.67
-143.869
-144.693
-145.144
-145.222
-144.932
-144.278
-143.265
-141.902
-140.197
-138.158
-135.798
-133.127
-130.159
-126.907
-123.385
-119.608
-115.593
-111.356
-106.914
-102.284
-97.483
-92.529
-87.439
-82.23
-76.921
-71.528
-66.068
-60.557
-55.011
-49.446
-43.875
-38.313
-32.773
-27.269
-21.811
-16.413
-11.086
-5.84
-0.686
4.364
9.301
14.115
18.795
23.332
27.718
31.943
35.999
39.878
43.572
47.075
50.379
53.478
56.365
59.035
61.481
63.699
65.683
67.429
68.931
70.186
71.189
71.936
72.422
72.646
72.601
72.285
71.696
70.829
69.683
68.257
66.55
64.562
62.295
59.749
56.927
53.834
50.473
46.849
42.968
38.837
34.462
29.852
25.016
19.963
14.704
9.25
3.613
-2.192
-8.154
-14.256
-20.483
-26.82
-33.248
-39.752
-46.311
-52.908
-59.524
-66.136
-72.726
-79.272
-85.754
-92.152
-98.444
-104.611
-110.634
-116.494
-122.173
-127.655
-132.924
-137.963
-142.759
-147.298
-151.566
-155.552
-159.245
-162.635
-165.715
-168.478
-170.921
-173.042
-174.842
-176.324
-177.491
-178.346
-178.898
-179.152
-179.116
-178.795
-178.195
-177.327
-176.202
-174.833
-173.233
-171.416
-169.395
-167.184
-164.798
-162.25
-159.552
-156.716
-153.752
-150.675
-147.504
-144.262
-140.981
-137.686
-134.388
-131.102
-127.839
-124.599
-121.386
-118.188
-114.978
-111.732
-108.426
-105.034
-101.543
-97.934
-94.178
-90.248
-86.099
-81.698
-77.062
-72.206
-67.148
-61.918
-56.522
-51.01
-45.51
-40.148
-35.068
-30.415
-26.259
-22.717
-19.971
-18.061
-16.951
-16.478
-16.203
-15.764
-14.956
-13.448
-11.014
-7.765
-3.915
-0.053
2.769
3.866
2.78
-1.052
-7.557
-15.908
-24.809
-32.175
-35.497
-32.833
-22.324
-1.91
29.39
71.326
122.557
180.414
241.698
303.396
362.014
412.983
452.168
476.73
484.766
476.749
454.9
419.839
372.434
313.92
243.677
166.667
91.97
27.813
-15.763
-36.979
-42.654
-39.457
-35.607
-34.393
-33.054
-30.431
-25.965
-20.406
-16.476
-14.898
-14.873
-15.408
-14.971
-12.785
-8.747
-2.729
5.102
14.314
24.377
34.611
44.299
53.047
60.671
67.053
72.228
76.246
79.174
81.18
82.455
83.139
83.353
83.196
82.761
82.201
81.643
81.175
80.865
80.731
80.781
81.032
81.47
82.062
82.771
83.553
84.369
85.195
85.997
86.733
87.356
87.812
88.067
88.106
87.926
87.535
86.951
86.194
85.301
84.32
83.291
82.256
81.252
80.312
79.474
78.782
78.276
77.997
77.984
78.268
78.882
79.856
81.216
82.981
85.169
87.792
90.862
94.389
98.382
102.845
107.781
113.186
119.057
125.384
132.154
139.352
146.955
154.939
163.275
171.934
180.882
190.082
199.497
209.084
218.803
228.609
238.458
248.304
258.099
267.798
277.353
286.719
295.85
304.703
313.233
321.402
329.169
336.5
343.36
349.718
355.546
360.821
365.52
369.627
373.126
376.007
378.264
379.894
380.898
381.282
381.056
380.23
378.822
376.851
374.339
371.31
367.793
363.816
359.41
354.61
349.451
343.966
338.195
332.174
325.94
319.531
312.985
306.338
299.625
292.88
286.138
279.428
272.782
266.226
259.787
253.488
247.35
241.393
235.631
230.079
224.748
219.644
214.774
210.14
205.742
201.577
197.642
193.929
190.43
187.134
184.03
181.104
178.342
175.727
173.244
170.875
168.602
166.407
164.274
162.183
160.117
158.061
155.996
153.908
151.783
149.605
147.363
145.045
142.64
140.142
137.541
134.829
131.997
129.042
125.96
122.753
119.421
115.96
112.379
108.702
104.948
101.133
97.267
93.341
89.354
85.325
81.232
77.005
72.607
68.021
63.257
58.371
53.417
48.383
43.408
38.857
34.814
31.115
27.782
24.586
22.038
21.715
23.177
24.785
23.693
14.882
-1.982
-23.43
-43.797
-53.708
-49.702
-33.505
-10.794
6.937
13.099
5.316
-13.852
-34.787
-51.079
-58.858
-57.856
-53.514
-49.334
-47.212
-47.872
-49.409
-50.684
-51.555
-52.026
-52.453
-52.906
-53.39
-52.914
-50.694
-48.043
-45.43
-45.142
-49.836
-56.517
-63.268
-67.073
-63.521
-55.911
-47.26
-39.778
-37.272
-36.529
-33.183
-26.119
-14.969
-5.646
-6.624
-20.173
-43.721
-67.667
-78.39
-70.774
-46.846
-15.35
9.202
20.265
17.34
3.531
-11.466
-22.639
-28.671
-28.388
-25.699
-23.113
-20.988
-20.713
-21.439
-22.267
-23.504
-24.941
-26.656
-28.881
-31.419
-34.08
-36.816
-39.565
-42.289
-44.99
-47.661
-50.278
-52.836
-55.338
-57.751
-60.045
-62.198
-64.182
-65.969
-67.542
-68.874
-69.946
-70.741
-71.248
-71.452
-71.345
-70.92
-70.171
-69.099
-67.704
-65.991
-63.968
-61.645
-59.034
-56.153
-53.019
-49.653
-46.078
-42.319
-38.402
-34.355
-30.208
-25.991
-21.738
-17.478
-13.247
-9.075
-4.997
-1.045
2.751
6.359
9.751
12.9
15.778
18.362
20.631
22.564
24.144
25.359
26.195
26.644
26.701
26.363
25.631
24.507
22.999
21.115
18.867
16.27
13.338
10.091
6.548
2.73
-1.338
-5.632
-10.128
-14.801
-19.623
-24.571
-29.618
-34.739
-39.913
-45.116
-50.325
-55.518
-60.675
-65.776
-70.804
-75.742
-80.571
-85.277
-89.849
-94.277
-98.556
-102.68
-106.644
-110.447
-114.09
-117.578
-120.919
-124.12
-127.182
-130.108
-132.907
-135.588
-138.168
-140.655
-143.049
-145.348
-147.55
-149.652
-151.654
-153.544
-155.295
-156.884
-158.29
-159.504
-160.531
-161.367
-162.001
-162.426
-162.63
-162.624
-162.433
-162.076
-161.584
-160.988
-160.321
-159.639
-159.013
-158.485
-158.117
-157.954
-157.964
-158.137
-158.447
-158.841
-159.349
-160.001
-160.759
-161.568
-162.474
-163.566
-164.754
-165.902
-166.792
-166.78
-166.16
-165.28
-162.826
-158.326
-149.517
-134.135
-115.539
-96.437
-81.334
-75.599
-76.172
-80.199
-84.983
-85.738
-84.083
-81.044
-74.475
-63.442
-45.107
-17.349
18.727
61.458
109.4
160.007
209.89
255.018
290.399
312.32
319.023
310.212
286.822
249.231
197.899
133.633
56.825
-27.358
-110.117
-182.59
-234.275
-262.656
-273.544
-272.775
-268.509
-264.442
-258.113
-249.604
-239.467
-228.698
-220.493
-215.979
-214.318
-214.862
-216.325
-217.179
-216.734
-214.651
-210.782
-205.488
-199.311
-192.631
-185.925
-179.801
-174.602
-170.497
-167.537
-165.544
-164.318
-163.721
-163.585
-163.72
-163.981
-164.203
-164.217
-163.935
-163.297
-162.25
-160.773
-158.839
-156.426
-153.554
-150.268
-146.614
-142.639
-138.382
-133.872
-129.153
-124.278
-119.308
-114.307
-109.323
-104.38
-99.5
-94.691
-89.963
-85.316
-80.737
-76.199
-71.68
-67.165
-62.64
-58.097
-53.522
-48.897
-44.204
-39.426
-34.55
-29.567
-24.466
-19.237
-13.874
-8.372
-2.73
3.049
8.964
15.016
21.204
27.525
33.976
40.55
47.243
54.046
60.949
67.94
75.004
82.123
89.281
96.457
103.631
110.779
117.879
124.906
131.833
138.636
145.287
151.759
158.023
164.052
169.818
175.294
180.45
185.261
189.698
193.737
197.351
200.518
203.214
205.418
207.111
208.274
208.892
208.952
208.44
207.347
205.668
203.396
200.532
197.076
193.032
188.407
183.211
177.456
171.157
164.331
156.998
149.179
140.899
132.185
123.063
113.564
103.719
93.563
83.128
72.452
61.57
50.521
39.342
28.073
16.753
5.42
-5.887
-17.128
-28.265
-39.262
-50.08
-60.684
-71.04
-81.113
-90.873
-100.29
-109.336
-117.984
-126.211
-133.995
-141.316
-148.156
-154.499
-160.333
-165.646
-170.429
-174.675
-178.38
-181.541
-184.157
-186.23
-187.764
-188.762
-189.234
-189.186
-188.629
-187.575
-186.038
-184.031
-181.571
-178.676
-175.362
-171.649
-167.558
-163.11
-158.324
-153.224
-147.831
-142.167
-136.256
-130.119
-123.78
-117.261
-110.585
-103.774
-96.85
-89.836
-82.754
-75.624
-68.467
-61.306
-54.159
-47.046
-39.987
-33.002
-26.107
-19.322
-12.664
-6.148
0.208
6.39
12.383
18.175
23.752
29.103
34.216
39.082
43.692
48.037
52.109
55.903
59.412
62.631
65.558
68.189
70.523
72.559
74.297
75.738
76.885
77.742
78.311
78.6
78.613
78.359
77.845
77.08
76.076
74.842
73.39
71.732
69.881
67.85
65.652
63.302
60.812
58.197
55.472
52.65
49.745
46.773
43.746
40.679
37.585
34.477
31.367
28.268
25.189
22.143
19.138
16.184
13.288
10.458
7.7
5.02
2.421
-0.094
-2.521
-4.859
-7.109
-9.271
-11.345
-13.334
-15.24
-17.066
-18.816
-20.492
-22.101
-23.645
-25.13
-26.562
-27.944
-29.284
-30.585
-31.855
-33.099
-34.32
-35.521
-36.708
-37.888
-39.069
-40.253
-41.446
-42.643
-43.85
-45.079
-46.328
-47.574
-48.8
-49.985
-51.123
-52.243
-53.345
-54.388
-55.391
-56.426
-57.565
-58.88
-60.379
-61.961
-63.587
-65.345
-67.13
-68.561
-69.46
-69.839
-69.65
-69.262
-68.128
-64.275
-58.128
-51.824
-48.517
-53.834
-67.559
-83.737
-97.456
-102.325
-97.919
-90.801
-82.825
-74.32
-64.389
-49.472
-32.849
-22.501
-23.605
-38.261
-63.092
-88.214
-104.737
-108.887
-99.42
-81.345
-63.187
-49.657
-44.501
-47.444
-53.437
-59.518
-63.661
-65.178
-65.903
-66.706
-67.57
-68.556
-69.335
-69.854
-70.431
-71.208
-72.176
-73.339
-74.68
-76.173
-77.799
-79.523
-81.283
-83.05
-84.831
-86.622
-88.408
-90.183
-91.929
-93.638
-95.302
-96.91
-98.44
-99.878
-101.206
-102.414
-103.488
-104.413
-105.174
-105.758
-106.151
-106.35
-106.35
-106.13
-105.681
-105.007
-104.105
-102.986
-101.666
-100.127
-98.371
-96.437
-94.314
-91.963
-89.368
-86.49
-83.317
-79.92
-76.309
-72.412
-68.35
-64.435
-60.752
-57.237
-53.918
-50.483
-47.567
-46.955
-48.195
-49.673
-48.603
-39.927
-24.211
-6.569
7.837
11.742
4.935
-5.817
-15.317
-17.875
-12.738
-5.014
2.241
6.841
8.168
8.243
7.879
7.004
5.754
3.875
1.362
-1.466
-4.516
-7.802
-11.247
-14.768
-18.316
-21.852
-25.366
-28.842
-32.186
-35.268
-37.971
-40.235
-42.081
-43.549
-44.658
-45.424
-45.852
-45.936
-45.724
-45.315
-44.791
-44.282
-43.927
-43.794
-44.025
-44.813
-46.193
-48.08
-50.24
-52.149
-53.384
-53.903
-53.656
-52.652
-51.264
-49.786
-48.682
-48.983
-51.288
-55.243
-60.192
-65.136
-68.496
-69.203
-66.297
-57.907
-42.775
-21.269
5.733
37.019
70.48
106.018
144.176
182.497
219.632
253.436
280.574
302.483
320.507
337.185
358.363
384.59
413.18
436.304
438.809
411.345
352.507
269.106
177.819
92.48
19.945
-37.274
-81.928
-116.551
-140.702
-153.757
-155.732
-147.835
-133.042
-115.32
-98.02
-83.17
-71.996
-64.824
-61.08
-60.11
-60.822
-61.513
-61.013
-58.782
-54.616
-48.798
-41.795
-33.96
-25.83
-18.144
-11.346
-5.64
-1.063
2.597
5.546
7.916
9.885
11.655
13.373
15.19
17.254
19.619
22.322
25.4
28.856
32.706
36.956
41.572
46.491
51.651
56.989
62.456
68.011
73.602
79.17
84.65
89.974
95.095
99.984
104.62
108.99
113.084
116.901
120.458
123.783
126.903
129.838
132.605
135.219
137.702
140.077
142.372
144.614
146.828
149.04
151.28
153.572
155.94
158.404
160.979
163.679
166.518
169.505
172.652
175.973
179.483
183.203
187.15
191.324
195.722
200.326
205.11
210.047
215.108
220.252
225.446
230.667
235.901
241.156
246.441
251.747
257.053
262.316
267.495
272.574
277.54
282.384
287.119
291.751
296.295
300.797
305.277
309.715
314.066
318.231
322.094
325.574
328.609
331.156
333.187
334.649
335.487
335.663
335.12
333.797
331.626
328.495
324.324
319.102
312.854
305.674
297.697
289.021
279.727
269.9
259.601
248.906
237.894
226.614
215.132
203.526
191.894
180.371
169.079
158.082
147.416
137.072
127.003
117.192
107.629
98.293
89.186
80.309
71.665
63.283
55.192
47.4
39.903
32.676
25.689
18.938
12.432
6.191
0.25
-5.367
-10.645
-15.558
-20.097
-24.26
-28.048
-31.482
-34.588
-37.386
-39.888
-42.108
-44.053
-45.737
-47.18
-48.398
-49.413
-50.244
-50.912
-51.438
-51.845
-52.147
-52.359
-52.492
-52.553
-52.549
-52.488
-52.378
-52.225
-52.035
-51.816
-51.572
-51.311
-51.036
-50.752
-50.46
-50.162
-49.859
-49.55
-49.236
-48.915
-48.586
-48.247
-47.896
-47.532
-47.152
-46.756
-46.34
-45.904
-45.446
-44.965
-44.461
-43.935
-43.385
-42.814
-42.223
-41.614
-40.992
-40.358
-39.717
-39.073
-38.431
-37.796
-37.171
-36.562
-35.972
-35.408
-34.872
-34.371
-33.909
-33.489
-33.117
-32.796
-32.53
-32.324
-32.179
-32.098
-32.085
-32.141
-32.267
-32.466
-32.737
-33.08
-33.496
-33.982
-34.538
-35.16
-35.846
-36.593
-37.397
-38.252
-39.154
-40.098
-41.078
-42.088
-43.122
-44.175
-45.239
-46.309
-47.379
-48.444
-49.497
-50.535
-51.553
-52.545
-53.508
-54.439
-55.334
-56.189
-57.004
-57.774
-58.499
-59.177
-59.806
-60.388
-60.92
-61.404
-61.839
-62.229
-62.572
-62.872
-63.131
-63.351
-63.534
-63.684
-63.805
-63.899
-63.97
-64.023
-64.06
-64.085
-64.101
-64.112
-64.119
-64.127
-64.136
-64.148
-64.166
-64.191
-64.224
-64.265
-64.316
-64.377
-64.447
-64.528
-64.617
-64.715
-64.821
-64.934
-65.052
-65.174
-65.299
-65.426
-65.551
-65.674
-65.793
-65.904
-66.006
-66.097
-66.173
-66.232
-66.272
-66.29
-66.285
-66.254
-66.196
-66.11
-65.993
-65.846
-65.666
-65.454
-65.209
-64.93
-64.618
-64.273
-63.896
-63.487
-63.047
-62.578
-62.081
-61.558
-61.01
-60.437
-59.84
-59.227
-58.601
-57.967
-57.329
-56.685
-56.041
-55.412
-54.797
-54.183
-53.562
-52.922
-52.268
-51.632
-51.025
-50.422
-49.848
-49.372
-49.047
-48.932
-49.039
-49.294
-49.674
-50.268
-50.998
-51.555
-51.871
-52.042
-52.031
-52.16
-51.848
-49.167
-44.476
-39.565
-37.293
-43.129
-56.895
-73.055
-86.147
-88.409
-79.124
-65.665
-53.744
-49.462
-54.049
-61.992
-69.844
-75.316
-77.628
-79.008
-80.5
-82.007
-83.6
-84.933
-85.9
-86.794
-87.699
-88.554
-89.357
-90.111
-90.798
-91.396
-91.871
-92.165
-92.254
-92.16
-91.885
-91.428
-90.788
-89.965
-88.964
-87.796
-86.469
-84.986
-83.355
-81.586
-79.69
-77.679
-75.568
-73.373
-71.11
-68.8
-66.463
-64.121
-61.796
-59.51
-57.285
-55.143
-53.103
-51.183
-49.398
-47.765
-46.296
-45.007
-43.912
-43.027
-42.366
-41.942
-41.763
-41.834
-42.159
-42.738
-43.565
-44.633
-45.934
-47.464
-49.226
-51.228
-53.465
-55.931
-58.61
-61.469
-64.475
-67.586
-70.746
-73.9
-76.993
-79.972
-82.799
-85.451
-87.907
-90.136
-92.085
-93.692
-94.922
-95.762
-96.221
-96.334
-96.133
-95.67
-95.032
-94.318
-93.615
-92.999
-92.515
-92.185
-92.049
-92.155
-92.576
-93.433
-94.747
-96.434
-98.305
-99.961
-100.915
-100.76
-99.158
-95.8
-90.583
-83.522
-75.049
-66.45
-59.284
-54.848
-52.566
-50.202
-46.307
-40.613
-36.303
-37.996
-44.837
-50.815
-45.336
-16.211
40.673
120.424
213.16
306.213
389.223
456.243
501.433
517.874
500.828
447.297
360.685
253.213
139.424
36.087
-44.458
-99.572
-131.679
-149.605
-161.975
-171.297
-177.426
-177.287
-168.927
-154.831
-139.035
-125.518
-116.617
-112.477
-112.052
-114
-117.077
-119.832
-121.104
-120.309
-117.21
-112.109
-105.58
-98.135
-90.442
-83.228
-76.863
-71.646
-67.933
-65.627
-64.439
-64.266
-64.617
-65.84
-69.648
-75.619
-81.906
-85.696
-81.658
-69.777
-55.327
-43.499
-41.696
-50.736
-63.549
-74.68
-78.341
-73.281
-64.815
-56.297
-49.926
-46.525
-43.999
-41.362
-38.742
-36.069
-33.672
-31.652
-29.712
-27.749
-25.792
-23.798
-21.724
-19.555
-17.282
-14.912
-12.471
-9.948
-7.295
-4.478
-1.478
1.725
5.148
8.809
12.73
16.923
21.394
26.146
31.185
36.513
42.135
48.05
54.256
60.746
67.511
74.538
81.812
89.316
97.03
104.932
112.998
121.205
129.528
137.943
146.421
154.932
163.442
171.914
180.311
188.595
196.723
204.655
212.349
219.765
226.865
233.618
239.988
245.939
251.429
256.415
260.859
264.738
268.027
270.705
272.764
274.202
275.034
275.296
275.01
274.185
272.82
270.9
268.415
265.363
261.737
257.533
252.745
247.359
241.377
234.812
227.658
219.891
211.465
202.295
192.341
181.61
170.127
157.953
145.163
131.835
118.082
104.047
89.855
75.63
61.472
47.447
33.661
20.239
7.335
-4.86
-16.204
-26.615
-36.03
-44.42
-51.789
-58.159
-63.61
-68.274
-72.257
-75.64
-78.484
-80.812
-82.681
-84.174
-85.383
-86.426
-87.394
-88.339
-89.311
-90.349
-91.457
-92.623
-93.791
-94.858
-95.752
-96.433
-96.878
-97.092
-97.067
-96.785
-96.233
-95.4
-94.279
-92.874
-91.186
-89.21
-86.966
-84.481
-81.805
-79.008
-76.146
-73.254
-70.362
-67.49
-64.653
-61.874
-59.16
-56.512
-53.937
-51.44
-49.031
-46.723
-44.523
-42.431
-40.447
-38.563
-36.775
-35.081
-33.477
-31.963
-30.536
-29.197
-27.945
-26.786
-25.722
-24.75
-23.869
-23.075
-22.364
-21.732
-21.174
-20.684
-20.256
-19.887
-19.571
-19.305
-19.085
-18.906
-18.765
-18.657
-18.58
-18.528
-18.5
-18.489
-18.493
-18.508
-18.531
-18.559
-18.59
-18.619
-18.647
-18.67
-18.687
-18.698
-18.701
-18.695
-18.679
-18.654
-18.619
-18.575
-18.522
-18.462
-18.394
-18.321
-18.243
-18.162
-18.078
-17.991
-17.903
-17.814
-17.723
-17.631
-17.538
-17.445
-17.351
-17.256
-17.161
-17.065
-16.969
-16.871
-16.772
-16.672
-16.568
-16.461
-16.349
-16.231
-16.105
-15.969
-15.822
-15.662
-15.487
-15.295
-15.085
-14.854
-14.603
-14.328
-14.031
-13.709
-13.364
-12.995
-12.603
-12.188
-11.752
-11.297
-10.823
-10.334
-9.83
-9.316
-8.793
-8.264
-7.732
-7.2
-6.671
-6.148
-5.636
-5.137
-4.655
-4.194
-3.759
-3.352
-2.978
-2.641
-2.344
-2.09
-1.884
-1.727
-1.623
-1.573
-1.578
-1.64
-1.759
-1.935
-2.169
-2.458
-2.8
-3.194
-3.641
-4.139
-4.685
-5.276
-5.905
-6.573
-7.283
-8.02
-8.774
-9.535
-10.289
-11.041
-11.806
-12.565
-13.3
-14.041
-14.81
-15.625
-16.514
-17.448
-18.372
-19.312
-20.32
-21.255
-21.953
-22.512
-22.922
-23.151
-23.553
-23.18
-21.112
-18.666
-16.244
-16.265
-21.625
-29.122
-36.623
-40.948
-37.731
-30.838
-23.544
-18.095
-18.202
-21.212
-24.439
-27.287
-28.118
-27.882
-27.801
-27.643
-27.56
-27.472
-27.129
-26.69
-26.284
-25.865
-25.423
-24.97
-24.498
-23.997
-23.457
-22.851
-22.15
-21.361
-20.493
-19.539
-18.5
-17.373
-16.159
-14.86
-13.483
-12.027
-10.495
-8.89
-7.218
-5.483
-3.694
-1.857
0.02
1.924
3.844
5.765
7.674
9.555
11.396
13.179
14.89
16.514
18.039
19.454
20.747
21.904
22.913
23.759
24.427
24.906
25.188
25.263
25.123
24.761
24.172
23.36
22.329
21.075
19.593
17.88
15.937
13.774
11.412
8.86
6.13
3.258
0.29
-2.765
-5.889
-9.053
-12.234
-15.373
-18.388
-21.283
-24.074
-26.574
-28.575
-30.147
-31.285
-31.991
-32.632
-32.307
-30.139
-27.437
-24.657
-24.251
-29.139
-36.328
-43.833
-48.574
-46.356
-41.038
-35.771
-32.597
-34.861
-39.476
-43.392
-45.971
-45.543
-42.902
-39.483
-35.196
-30.387
-25.966
-22.52
-20.368
-19.826
-20.413
-20.677
-19.743
-16.83
-10.002
2.344
21.434
48.842
84.369
125.949
172.117
221.278
270.677
317.959
360.046
392.671
413.7
422.888
419.654
403.976
376.412
337.182
288.379
234.017
176.832
118.863
62.507
9.778
-36.782
-74.292
-101.863
-120.234
-129.938
-131.864
-127.241
-117.403
-104.837
-92.196
-80.808
-71.241
-63.807
-58.379
-54.835
-52.815
-51.147
-48.825
-45.526
-41.179
-36.033
-30.469
-24.668
-18.946
-13.874
-9.818
-6.919
-5.176
-4.358
-4.239
-4.694
-5.543
-6.589
-7.659
-8.556
-9.164
-9.45
-9.383
-8.944
-8.115
-6.861
-5.189
-3.145
-0.77
1.886
4.78
7.885
11.156
14.543
17.996
21.454
24.88
28.257
31.573
34.824
38.011
41.132
44.203
47.253
50.306
53.383
56.504
59.679
62.926
66.269
69.728
73.321
77.064
80.967
85.042
89.298
93.741
98.376
103.201
108.215
113.413
118.794
124.353
130.086
135.986
142.043
148.247
154.587
161.049
167.615
174.267
180.984
187.744
194.524
201.299
208.042
214.725
221.322
227.801
234.135
240.293
246.245
251.96
257.409
262.563
267.394
271.874
275.977
279.677
282.952
285.779
288.14
290.016
291.391
292.251
292.586
292.386
291.645
290.358
288.524
286.144
283.221
279.763
275.778
271.279
266.279
260.796
254.848
248.458
241.648
234.444
226.872
218.961
210.739
202.239
193.49
184.526
175.378
166.078
156.66
147.155
137.595
128.011
118.434
108.892
99.414
90.028
80.758
71.631
62.669
53.893
45.323
36.978
28.874
21.025
13.443
6.138
-0.88
-7.606
-14.034
-20.163
-25.99
-31.517
-36.745
-41.679
-46.322
-50.682
-54.764
-58.578
-62.131
-65.433
-68.493
-71.322
-73.928
-76.322
-78.514
-80.515
-82.333
-83.98
-85.464
-86.795
-87.981
-89.031
-89.954
-90.755
-91.443
-92.023
-92.5
-92.88
-93.167
-93.365
-93.476
-93.505
-93.451
-93.318
-93.106
-92.816
-92.449
-92.005
-91.484
-90.886
-90.212
-89.464
-88.64
-87.745
-86.777
-85.741
-84.638
-83.471
-82.244
-80.959
-79.621
-78.234
-76.802
-75.332
-73.828
-72.297
-70.745
-69.178
-67.602
-66.025
-64.454
-62.895
-61.355
-59.842
-58.363
-56.924
-55.534
-54.197
-52.923
-51.715
-50.581
-49.526
-48.555
-47.671
-46.88
-46.183
-45.582
-45.081
-44.68
-44.379
-44.179
-44.079
-44.077
-44.171
-44.359
-44.638
-45.004
-45.452
-45.98
-46.581
-47.251
-47.985
-48.779
-49.626
-50.523
-51.464
-52.443
-53.455
-54.496
-55.56
-56.643
-57.74
-58.847
-59.959
-61.074
-62.186
-63.294
-64.394
-65.484
-66.561
-67.623
-68.668
-69.695
-70.702
-71.689
-72.656
-73.602
-74.526
-75.43
-76.314
-77.177
-78.021
-78.844
-79.648
-80.432
-81.195
-81.939
-82.661
-83.361
-84.038
-84.692
-85.319
-85.92
-86.492
-87.034
-87.543
-88.016
-88.454
-88.852
-89.209
-89.524
-89.794
-90.017
-90.193
-90.318
-90.391
-90.411
-90.376
-90.285
-90.136
-89.93
-89.664
-89.341
-88.959
-88.519
-88.023
-87.473
-86.871
-86.22
-85.523
-84.785
-84.009
-83.201
-82.367
-81.512
-80.644
-79.768
-78.893
-78.024
-77.168
-76.335
-75.529
-74.759
-74.032
-73.355
-72.735
-72.179
-71.695
-71.289
-70.967
-70.735
-70.599
-70.564
-70.634
-70.813
-71.105
-71.511
-72.033
-72.673
-73.429
-74.301
-75.286
-76.382
-77.583
-78.886
-80.282
-81.766
-83.329
-84.963
-86.659
-88.406
-90.195
-92.014
-93.851
-95.695
-97.532
-99.35
-101.134
-102.87
-104.544
-106.141
-107.646
-109.046
-110.327
-111.473
-112.473
-113.313
-113.982
-114.467
-114.759
-114.846
-114.723
-114.38
-113.814
-113.018
-111.991
-110.731
-109.238
-107.515
-105.565
-103.393
-101.003
-98.404
-95.604
-92.615
-89.448
-86.116
-82.636
-79.024
-75.303
-71.493
-67.616
-63.694
-59.749
-55.807
-51.892
-48.026
-44.231
-40.527
-36.939
-33.49
-30.204
-27.103
-24.209
-21.54
-19.119
-16.966
-15.099
-13.53
-12.27
-11.328
-10.718
-10.453
-10.552
-11.019
-11.851
-13.04
-14.58
-16.451
-18.63
-21.08
-23.741
-26.566
-29.511
-32.531
-35.589
-38.632
-41.596
-44.431
-47.092
-49.547
-51.786
-53.796
-55.564
-57.121
-58.515
-59.813
-61.116
-62.502
-64.031
-65.794
-67.872
-70.351
-73.326
-76.836
-80.891
-85.479
-90.545
-96.023
-101.83
-107.813
-113.785
-119.546
-124.84
-129.421
-133.019
-135.286
-135.902
-134.503
-130.688
-124.287
-115.273
-103.796
-90.31
-75.232
-58.81
-41.514
-23.884
-5.895
12.642
32.366
54.809
80.862
110.593
144.437
181.425
219.497
257.885
293.935
325.624
352.16
368.286
369.869
352.544
312.539
254.886
185.708
112.021
41.854
-23.191
-81.229
-129.203
-166.605
-191.65
-203.844
-205.723
-199.492
-187.705
-173.823
-160.406
-149.012
-140.786
-135.927
-133.772
-133.761
-135.092
-136.393
-136.739
-135.765
-133.316
-129.687
-125.374
-120.684
-116.057
-112.117
-109.215
-107.5
-106.987
-107.452
-108.676
-110.509
-112.736
-115.129
-117.509
-119.678
-121.502
-122.935
-123.93
-124.46
-124.512
-124.06
-123.107
-121.692
-119.859
-117.659
-115.141
-112.343
-109.314
-106.115
-102.808
-99.465
-96.135
-92.847
-89.623
-86.474
-83.406
-80.426
-77.524
-74.678
-71.867
-69.073
-66.28
-63.477
-60.648
-57.772
-54.824
-51.782
-48.627
-45.344
-41.918
-38.33
-34.57
-30.623
-26.483
-22.145
-17.603
-12.848
-7.875
-2.677
2.749
8.405
14.291
20.406
26.748
33.31
40.082
47.053
54.21
61.537
69.017
76.63
84.353
92.164
100.037
107.945
115.861
123.753
131.591
139.342
146.974
154.453
161.745
168.816
175.634
182.164
188.375
194.237
199.718
204.792
209.429
213.606
217.3
220.488
223.153
225.277
226.847
227.851
228.283
228.136
227.41
226.105
224.224
221.776
218.77
215.219
211.137
206.544
201.459
195.906
189.911
183.5
176.704
169.554
162.082
154.323
146.311
138.083
129.675
121.122
112.462
103.731
94.965
86.199
77.469
68.808
60.25
51.826
43.565
35.497
27.648
20.043
12.703
5.65
-1.098
-7.524
-13.616
-19.36
-24.748
-29.772
-34.427
-38.711
-42.622
-46.164
-49.338
-52.152
-54.612
-56.728
-58.51
-59.971
-61.123
-61.982
-62.562
-62.881
-62.956
-62.804
-62.445
-61.896
-61.178
-60.308
-59.306
-58.191
-56.979
-55.69
-54.34
-52.945
-51.522
-50.085
-48.649
-47.226
-45.829
-44.469
-43.156
-41.899
-40.705
-39.581
-38.533
-37.563
-36.676
-35.873
-35.155
-34.521
-33.971
-33.501
-33.109
-32.789
-32.536
-32.344
-32.206
-32.114
-32.061
-32.037
-32.033
-32.041
-32.051
-32.053
-32.039
-31.997
-31.918
-31.793
-31.613
-31.368
-31.049
-30.649
-30.159
-29.572
-28.882
-28.082
-27.167
-26.132
-24.973
-23.687
-22.271
-20.723
-19.044
-17.232
-15.29
-13.22
-11.023
-8.705
-6.269
-3.721
-1.067
1.688
4.536
7.469
10.48
13.559
16.699
19.889
23.121
26.384
29.669
32.967
36.267
39.559
42.835
46.085
49.299
52.469
55.586
58.642
61.629
64.539
67.367
70.106
72.75
75.295
77.737
80.072
82.297
84.41
86.41
88.294
90.062
91.714
93.25
94.671
95.979
97.174
98.259
99.237
100.108
100.877
101.544
102.115
102.59
102.972
103.266
103.473
103.597
103.639
103.603
103.492
103.306
103.049
102.722
102.326
101.862
101.332
100.737
100.076
99.352
98.563
97.711
96.797
95.819
94.78
93.677
92.513
91.286
89.998
88.648
87.238
85.769
84.241
82.657
81.017
79.326
77.584
75.794
73.96
72.084
70.171
68.225
66.249
64.249
62.23
60.198
58.157
56.113
54.074
52.043
50.027
48.032
46.063
44.125
42.224
40.364
38.552
36.791
35.086
33.441
31.86
30.347
28.903
27.532
26.234
25.012
23.865
22.794
21.799
20.879
20.034
19.262
18.56
17.927
17.359
16.851
16.401
16.004
15.655
15.35
15.083
14.852
14.651
14.478
14.327
14.196
14.081
13.978
13.884
13.796
13.71
13.626
13.539
13.45
13.356
13.257
13.152
13.042
12.926
12.805
12.678
12.547
12.409
12.267
12.12
11.97
11.816
11.661
11.505
11.347
11.191
11.036
10.881
10.724
10.56
10.386
10.198
9.99
9.756
9.492
9.193
8.855
8.477
8.058
7.593
7.079
6.51
5.878
5.177
4.399
3.539
2.593
1.557
0.433
-0.774
-2.066
-3.441
-4.901
-6.458
-8.122
-9.9
-11.796
-13.808
-15.919
-18.11
-20.356
-22.621
-24.879
-27.102
-29.265
-31.348
-33.328
-35.188
-36.918
-38.484
-39.847
-40.982
-41.863
-42.499
-42.945
-43.24
-43.436
-43.594
-43.736
-43.921
-44.23
-44.735
-45.531
-46.684
-48.196
-50.135
-52.637
-55.695
-59.186
-62.774
-65.845
-67.881
-68.567
-67.659
-65.004
-60.777
-55.397
-49.692
-45.029
-42.683
-43.538
-47.855
-55.188
-64.279
-73.393
-80.467
-82.72
-77.228
-61.391
-33.692
5.851
55.656
113.277
175.965
239.863
300.301
352.192
390.934
413.539
418.681
405.863
375.02
327.655
266.781
196.789
122.945
49.811
-18.788
-79.033
-127.496
-162.246
-182.785
-190.157
-186.868
-175.437
-158.502
-139.397
-121.115
-105.604
-94.051
-86.657
-82.707
-81.498
-82.082
-82.919
-82.88
-81.449
-78.396
-73.992
-68.748
-63.018
-57.292
-52.255
-48.295
-45.569
-44.096
-43.646
-43.997
-45.007
-46.46
-48.132
-49.855
-51.454
-52.816
-53.913
-54.704
-55.155
-55.256
-54.975
-54.312
-53.301
-51.976
-50.379
-48.553
-46.531
-44.354
-42.073
-39.738
-37.404
-35.11
-32.871
-30.697
-28.588
-26.538
-24.547
-22.598
-20.663
-18.719
-16.741
-14.714
-12.625
-10.456
-8.181
-5.773
-3.202
-0.442
2.527
5.724
9.167
12.871
16.851
21.117
25.665
30.486
35.594
41.023
46.808
52.975
59.522
66.414
73.634
81.198
89.051
97.052
105.074
113.007
120.801
128.535
136.25
143.833
151.387
159.332
167.754
176.531
185.71
194.84
204.578
217.174
232.081
247.02
258.377
259.838
251.916
241.01
233.91
239.049
256.192
278.081
298.442
311.893
320.44
329.138
340.643
354.542
363.58
360.82
343.842
314.888
284.777
265.87
263.831
278.415
300.989
318.089
322.762
314.164
295.97
276.767
262.329
253.322
247.814
239.484
220.837
189.122
148.188
109.145
84.538
81.049
95.314
114.18
125.522
124.026
110.893
94.711
82.059
72.532
64.998
55.159
39.165
20.868
2.911
-11.338
-17.334
-18.82
-19.113
-20.674
-27.43
-36.913
-46.449
-55.237
-61.528
-66.316
-70.853
-74.923
-78.677
-81.976
-84.569
-86.681
-88.491
-90.004
-91.24
-92.22
-92.96
-93.476
-93.787
-93.897
-93.799
-93.521
-93.089
-92.509
-91.796
-90.963
-90.023
-88.992
-87.886
-86.713
-85.486
-84.228
-82.954
-81.683
-80.429
-79.202
-78.012
-76.871
-75.788
-74.773
-73.833
-72.974
-72.201
-71.523
-70.943
-70.467
-70.098
-69.837
-69.686
-69.647
-69.721
-69.907
-70.203
-70.61
-71.129
-71.764
-72.517
-73.387
-74.369
-75.462
-76.666
-77.977
-79.375
-80.831
-82.316
-83.819
-85.346
-86.9
-88.47
-90.058
-91.712
-93.512
-95.519
-97.737
-100.122
-102.623
-105.235
-107.881
-110.277
-112.169
-113.52
-114.424
-115.139
-115.07
-112.755
-107.674
-100.696
-95.793
-98.787
-111.796
-132.873
-154.506
-165.779
-162.14
-144.576
-119.723
-99.682
-90.185
-92.243
-103.967
-116.991
-126.746
-131.759
-130.578
-126.817
-122.95
-119.42
-117.589
-116.567
-115.44
-114.589
-113.772
-112.781
-111.786
-110.695
-109.295
-107.893
-105.934
-101.643
-95.4
-88.846
-84.581
-87.692
-98.058
-110.526
-120.03
-119.397
-107.921
-92.493
-78.553
-71.603
-72.656
-76.964
-81.557
-84.683
-86.106
-87.444
-89.157
-91.17
-93.435
-95.337
-96.681
-97.207
-96.373
-94.672
-92.667
-90.474
-88.374
-86.521
-84.885
-83.908
-84.091
-85.057
-86.442
-88.109
-89.767
-91.418
-93.152
-94.721
-95.894
-96.824
-97.633
-98.399
-99.273
-100.19
-101.072
-101.97
-102.911
-103.871
-104.846
-105.807
-106.715
-107.594
-108.466
-109.333
-110.208
-111.082
-111.943
-112.792
-113.627
-114.446
-115.249
-116.034
-116.797
-117.535
-118.243
-118.92
-119.562
-120.165
-120.723
-121.232
-121.686
-122.086
-122.431
-122.72
-122.952
-123.125
-123.237
-123.284
-123.263
-123.171
-123.003
-122.76
-122.443
-122.053
-121.588
-121.044
-120.419
-119.717
-118.935
-118.058
-117.057
-115.907
-114.598
-113.151
-111.581
-109.872
-108.034
-106.127
-104.238
-102.457
-100.815
-99.26
-97.741
-96.306
-94.901
-93.237
-91.104
-88.459
-85.362
-82.168
-78.234
-71.777
-62.25
-50.776
-41.781
-41.72
-52.856
-71.851
-89.582
-95.416
-85.36
-63.39
-39.617
-23.97
-20.122
-25.573
-33.924
-40.069
-42.538
-42.219
-41.231
-40.66
-40.386
-40.212
-39.956
-39.724
-39.788
-40.208
-40.938
-41.973
-43.286
-44.82
-46.506
-48.249
-49.98
-51.682
-53.341
-54.944
-56.46
-57.834
-59.026
-60.004
-60.748
-61.272
-61.604
-61.761
-61.777
-61.687
-61.534
-61.402
-61.368
-61.519
-61.955
-62.701
-63.85
-65.573
-67.898
-70.739
-73.814
-76.53
-78.362
-78.995
-78.005
-75.101
-70.397
-64.226
-57.605
-52.147
-49.133
-49.613
-54.42
-63.461
-75.78
-89.762
-102.514
-110.456
-110.362
-98.954
-73.667
-33.788
19.933
85.318
158.593
235.207
309.904
376.407
429.139
464.134
479.903
477.577
457.187
418.628
361.991
286.546
198.259
107.194
22.807
-43.374
-87.912
-115.82
-131.996
-143.844
-154.162
-158.933
-156.379
-146.027
-129.93
-113.428
-99.413
-88.404
-80.355
-74.627
-70.932
-69.285
-68.829
-68.144
-66.477
-63.698
-60.014
-55.859
-51.484
-46.987
-42.733
-39.287
-36.958
-35.818
-35.749
-36.451
-37.704
-39.358
-41.229
-43.111
-44.806
-46.162
-47.1
-47.607
-47.676
-47.303
-46.476
-45.183
-43.448
-41.306
-38.803
-35.989
-32.909
-29.61
-26.142
-22.56
-18.924
-15.274
-11.632
-8.006
-4.396
-0.793
2.806
6.415
10.056
13.756
17.535
21.416
25.416
29.556
33.86
38.354
43.063
48.007
53.201
58.659
64.392
70.411
76.722
83.328
90.228
97.421
104.909
112.689
120.759
129.111
137.736
146.623
155.759
165.126
174.703
184.467
194.391
204.446
214.602
224.825
235.081
245.333
255.543
265.67
275.674
285.512
295.139
304.511
313.584
322.311
330.651
338.559
345.994
352.914
359.283
365.062
370.217
374.715
378.525
381.62
383.974
385.565
386.376
386.392
385.603
384.003
381.59
378.368
374.344
369.529
363.938
357.59
350.504
342.706
334.221
325.081
315.318
304.968
294.07
282.669
270.812
258.551
245.94
233.031
219.878
206.535
193.054
179.488
165.889
152.305
138.784
125.379
112.142
99.133
86.408
74.005
61.957
50.287
39.007
28.129
17.664
7.606
-2.038
-11.255
-20.024
-28.299
-36.04
-43.223
-49.842
-55.909
-61.44
-66.427
-70.861
-74.731
-78.004
-80.66
-82.671
-83.978
-84.552
-84.411
-83.596
-82.206
-80.362
-78.149
-75.636
-72.875
-69.907
-66.797
-63.616
-60.419
-57.287
-54.299
-51.549
-49.178
-47.291
-45.928
-45.091
-44.716
-44.696
-44.966
-45.475
-46.171
-47.024
-47.991
-49.025
-50.108
-51.208
-52.278
-53.251
-54.019
-54.492
-54.635
-54.441
-53.946
-53.226
-52.323
-51.271
-50.114
-48.874
-47.572
-46.223
-44.818
-43.346
-41.815
-40.244
-38.676
-37.153
-35.689
-34.289
-32.942
-31.621
-30.313
-29.008
-27.69
-26.354
-25.002
-23.643
-22.299
-21
-19.765
-18.61
-17.546
-16.581
-15.726
-14.997
-14.409
-13.978
-13.72
-13.649
-13.78
-14.128
-14.699
-15.499
-16.529
-17.784
-19.262
-20.958
-22.865
-24.976
-27.285
-29.78
-32.452
-35.29
-38.28
-41.407
-44.654
-48.002
-51.432
-54.923
-58.455
-62.005
-65.552
-69.075
-72.551
-75.96
-79.28
-82.491
-85.574
-88.51
-91.281
-93.871
-96.263
-98.443
-100.398
-102.117
-103.591
-104.811
-105.771
-106.465
-106.892
-107.05
-106.938
-106.56
-105.917
-105.013
-103.857
-102.454
-100.814
-98.947
-96.864
-94.578
-92.102
-89.45
-86.635
-83.673
-80.577
-77.361
-74.041
-70.63
-67.142
-63.591
-59.99
-56.351
-52.688
-49.013
-45.336
-41.669
-38.023
-34.406
-30.827
-27.294
-23.815
-20.395
-17.041
-13.756
-10.545
-7.41
-4.354
-1.378
1.518
4.334
7.071
9.73
12.314
14.825
17.265
19.636
21.94
24.18
26.357
28.474
30.531
32.53
34.472
36.359
38.194
39.979
41.712
43.391
45.017
46.591
48.119
49.601
51.026
52.402
53.745
55.069
56.391
57.709
58.993
60.241
61.478
62.678
63.777
64.722
65.454
65.968
66.339
66.584
66.61
66.512
66.6
66.923
67.391
68.04
68.514
69.496
72.921
78.252
83.747
86.359
80.53
66.898
50.946
38.247
36.7
46.384
59.901
71.563
75.098
69.738
61.03
52.271
45.835
42.294
39.368
36.099
32.541
28.626
24.705
20.847
16.749
12.33
7.64
2.666
-2.603
-8.148
-13.947
-19.958
-26.107
-32.352
-38.676
-45.03
-51.36
-57.609
-63.72
-69.645
-75.334
-80.748
-85.852
-90.605
-94.983
-98.975
-102.577
-105.809
-108.715
-111.337
-113.747
-116.053
-118.364
-120.82
-123.56
-126.698
-130.338
-134.547
-139.354
-144.766
-150.768
-157.298
-164.262
-171.552
-179.018
-186.496
-193.773
-200.534
-206.398
-210.973
-213.846
-214.515
-212.597
-207.927
-200.54
-190.823
-179.242
-166.036
-151.507
-136.266
-120.648
-104.333
-86.342
-65.185
-39.522
-9.767
22.373
57.211
95.306
137.391
185.496
234.959
276.856
303.511
305.165
279.37
232.888
172.282
106.557
41.748
-23.209
-87.906
-150.61
-208.119
-254.904
-288.029
-307.714
-315.529
-313.47
-303.362
-287.122
-267.541
-247.871
-230.317
-215.806
-204.467
-196.2
-190.903
-188.279
-187.385
-186.819
-185.735
-183.892
-181.405
-178.614
-175.742
-172.938
-170.574
-169.175
-169.018
-170.125
-172.339
-175.335
-178.844
-182.681
-186.627
-190.43
-193.903
-196.921
-199.428
-201.44
-202.969
-204
-204.529
-204.567
-204.139
-203.288
-202.06
-200.492
-198.632
-196.531
-194.241
-191.814
-189.285
-186.668
-183.967
-181.173
-178.275
-175.261
-172.116
-168.815
-165.339
-161.667
-157.781
-153.668
-149.311
-144.69
-139.785
-134.579
-129.059
-123.217
-117.048
-110.546
-103.711
-96.542
-89.044
-81.225
-73.089
-64.644
-55.894
-46.849
-37.519
-27.917
-18.056
-7.951
2.379
12.916
23.637
34.517
45.534
56.661
67.871
79.138
90.433
101.727
112.991
124.195
135.311
146.307
157.153
167.821
178.28
188.502
198.46
208.125
217.473
226.477
235.116
243.366
251.208
258.623
265.593
272.103
278.14
283.693
288.753
293.311
297.364
300.907
303.941
306.467
308.488
310.011
311.042
311.591
311.669
311.287
310.461
309.206
307.536
305.472
303.03
300.231
297.096
293.646
289.902
285.886
281.622
277.132
272.438
267.563
262.53
257.359
252.074
246.694
241.24
235.734
230.193
224.638
219.085
213.553
208.058
202.614
197.237
191.941
186.737
181.638
176.655
171.797
167.073
162.492
158.06
153.784
149.67
145.721
141.941
138.333
134.899
131.638
128.553
125.641
122.902
120.334
117.935
115.703
113.633
111.722
109.967
108.361
106.9
105.579
104.39
103.327
102.384
101.554
100.828
100.199
99.659
99.199
98.812
98.488
98.218
97.994
97.807
97.647
97.506
97.375
97.246
97.112
96.964
96.796
96.6
96.37
96.1
95.784
95.416
94.992
94.506
93.955
93.334
92.641
91.873
91.028
90.104
89.1
88.017
86.854
85.613
84.295
82.903
81.439
79.908
78.314
76.661
74.955
73.202
71.407
69.577
67.719
65.838
63.941
62.034
60.123
58.215
56.314
54.428
52.562
50.72
48.909
47.133
45.398
43.707
42.065
40.475
38.942
37.467
36.054
34.704
33.418
32.198
31.044
29.954
28.927
27.961
27.052
26.198
25.393
24.634
23.913
23.227
22.569
21.932
21.311
20.7
20.092
19.481
18.861
18.227
17.571
16.888
16.172
15.418
14.621
13.773
12.872
11.91
10.883
9.788
8.618
7.371
6.043
4.63
3.132
1.546
-0.128
-1.891
-3.742
-5.679
-7.699
-9.8
-11.978
-14.229
-16.548
-18.93
-21.369
-23.861
-26.398
-28.976
-31.588
-34.228
-36.89
-39.567
-42.254
-44.944
-47.63
-50.305
-52.963
-55.596
-58.198
-60.762
-63.28
-65.746
-68.154
-70.496
-72.767
-74.961
-77.073
-79.098
-81.033
-82.872
-84.614
-86.257
-87.798
-89.236
-90.572
-91.804
-92.933
-93.959
-94.882
-95.703
-96.422
-97.041
-97.559
-97.977
-98.297
-98.52
-98.647
-98.681
-98.622
-98.472
-98.234
-97.909
-97.5
-97.008
-96.435
-95.782
-95.051
-94.245
-93.365
-92.412
-91.387
-90.292
-89.126
-87.892
-86.588
-85.214
-83.77
-82.256
-80.67
-79.013
-77.285
-75.487
-73.617
-71.679
-69.673
-67.602
-65.468
-63.274
-61.022
-58.714
-56.355
-53.951
-51.506
-49.025
-46.515
-43.985
-41.445
-38.905
-36.375
-33.865
-31.386
-28.948
-26.563
-24.241
-21.99
-19.819
-17.74
-15.764
-13.905
-12.176
-10.586
-9.149
-7.878
-6.786
-5.887
-5.19
-4.699
-4.424
-4.375
-4.564
-5.008
-5.713
-6.677
-7.897
-9.369
-11.081
-13.014
-15.136
-17.396
-19.752
-22.166
-24.598
-27.015
-29.369
-31.608
-33.695
-35.594
-37.291
-38.785
-40.067
-41.142
-42.048
-42.84
-43.596
-44.42
-45.395
-46.602
-48.15
-50.129
-52.647
-55.79
-59.592
-64.062
-69.17
-74.863
-81.079
-87.722
-94.642
-101.642
-108.49
-114.912
-120.639
-125.353
-128.704
-130.307
-129.709
-126.648
-121.072
-113.108
-103.153
-91.55
-78.45
-64.201
-49.307
-33.846
-17.562
0.358
21.373
46.297
75.17
108.027
144.678
184.224
225.072
264.259
297.721
322.362
336.038
336.941
323.798
296.033
254.334
201.426
141.513
78.457
15.746
-43.224
-95.084
-136.729
-166.429
-184.204
-191.401
-189.741
-180.998
-167.308
-151.397
-135.97
-122.79
-112.686
-105.684
-101.422
-99.59
-99.516
-100.018
-100.074
-99.134
-97.064
-94.138
-90.742
-87.127
-83.667
-80.89
-79.14
-78.564
-79.121
-80.576
-82.683
-85.247
-88.065
-90.922
-93.635
-96.075
-98.154
-99.85
-101.152
-102.048
-102.522
-102.564
-102.189
-101.425
-100.319
-98.921
-97.271
-95.421
-93.422
-91.326
-89.191
-87.052
-84.931
-82.837
-80.773
-78.735
-76.722
-74.725
-72.724
-70.701
-68.634
-66.505
-64.297
-61.994
-59.57
-57.003
-54.269
-51.345
-48.219
-44.873
-41.295
-37.472
-33.391
-29.046
-24.43
-19.538
-14.363
-8.898
-3.14
2.915
9.264
15.907
22.839
30.053
37.539
45.284
53.272
61.484
69.901
78.503
87.264
96.158
105.157
114.231
123.347
132.474
141.576
150.617
159.558
168.363
176.994
185.412
193.58
201.458
209.01
216.198
222.986
229.34
235.226
240.612
245.468
249.766
253.482
256.592
259.077
260.921
262.11
262.634
262.486
261.664
260.166
257.997
255.163
251.675
247.546
242.794
237.438
231.5
225.008
217.989
210.473
202.495
194.087
185.286
176.131
166.661
156.915
146.935
136.762
126.438
116.006
105.506
94.981
84.47
74.013
63.648
53.413
43.342
33.47
23.828
14.446
5.353
-3.428
-11.873
-19.963
-27.679
-35.007
-41.934
-48.452
-54.554
-60.233
-65.489
-70.321
-74.732
-78.724
-82.305
-85.482
-88.265
-90.665
-92.695
-94.369
-95.702
-96.71
-97.41
-97.818
-97.953
-97.832
-97.475
-96.9
-96.126
-95.171
-94.053
-92.791
-91.403
-89.905
-88.313
-86.643
-84.909
-83.125
-81.303
-79.455
-77.593
-75.727
-73.865
-72.018
-70.191
-68.394
-66.631
-64.909
-63.231
-61.603
-60.028
-58.509
-57.048
-55.649
-54.312
-53.039
-51.832
-50.692
-49.618
-48.612
-47.674
-46.802
-45.997
-45.259
-44.586
-43.977
-43.433
-42.952
-42.534
-42.177
-41.882
-41.647
-41.471
-41.352
-41.289
-41.28
-41.324
-41.418
-41.56
-41.748
-41.979
-42.251
-42.561
-42.906
-43.283
-43.689
-44.119
-44.571
-45.04
-45.523
-46.015
-46.513
-47.013
-47.51
-48.003
-48.486
-48.956
-49.411
-49.845
-50.257
-50.644
-51.002
-51.329
-51.623
-51.882
-52.105
-52.292
-52.441
-52.554
-52.631
-52.673
-52.68
-52.656
-52.601
-52.519
-52.412
-52.283
-52.135
-51.973
-51.8
-51.62
-51.438
-51.257
-51.083
-50.92
-50.771
-50.642
-50.534
-50.453
-50.402
-50.384
-50.402
-50.459
-50.557
-50.698
-50.884
-51.115
-51.392
-51.716
-52.085
-52.498
-52.954
-53.45
-53.985
-54.555
-55.157
-55.789
-56.446
-57.124
-57.82
-58.53
-59.247
-59.969
-60.69
-61.405
-62.11
-62.8
-63.472
-64.121
-64.743
-65.336
-65.896
-66.42
-66.908
-67.356
-67.763
-68.129
-68.453
-68.735
-68.976
-69.175
-69.337
-69.461
-69.55
-69.608
-69.636
-69.639
-69.618
-69.577
-69.519
-69.447
-69.365
-69.275
-69.18
-69.084
-68.989
-68.898
-68.814
-68.738
-68.672
-68.618
-68.574
-68.542
-68.52
-68.508
-68.503
-68.502
-68.503
-68.502
-68.496
-68.48
-68.449
-68.398
-68.322
-68.214
-68.07
-67.882
-67.645
-67.353
-67
-66.581
-66.091
-65.526
-64.881
-64.153
-63.339
-62.436
-61.443
-60.359
-59.181
-57.911
-56.55
-55.1
-53.564
-51.947
-50.253
-48.492
-46.674
-44.81
-42.91
-40.983
-39.043
-37.106
-35.186
-33.298
-31.452
-29.653
-27.915
-26.263
-24.709
-23.246
-21.872
-20.579
-19.377
-18.305
-17.375
-16.558
-15.88
-15.421
-15.243
-15.42
-15.977
-16.832
-17.969
-19.476
-21.23
-22.851
-24.22
-25.413
-26.375
-27.44
-27.905
-25.589
-20.922
-15.955
-13.916
-20.946
-36.767
-55.054
-69.711
-71.874
-60.36
-43.474
-27.838
-20.366
-22.898
-28.656
-31.806
-30.179
-24.794
-21.188
-26.233
-39.801
-56.475
-70.316
-73.205
-64.471
-51.348
-39.227
-34.051
-36.911
-41.986
-45.951
-46.965
-44.831
-42.66
-42.064
-43.078
-45.667
-49.203
-52.798
-55.346
-55.251
-50.63
-40.306
-23.732
-0.695
28.859
64.784
106.075
150.945
197.167
242.896
286.684
327.161
362.782
391.385
411.224
421.647
422.635
414.093
395.798
367.519
329.433
283.259
231.375
175.375
116.622
57.067
-0.694
-53.219
-97.08
-130.633
-153.496
-164.955
-164.462
-152.656
-131.549
-104.897
-77.004
-50.701
-27.66
-9.686
1.447
4.981
1.492
-6.736
-16.703
-26.523
-35.255
-41.973
-45.645
-45.676
-42.176
-36.308
-29.849
-23.864
-18.727
-14.67
-11.907
-10.603
-10.795
-12.077
-13.661
-15.042
-16.036
-16.59
-16.767
-16.564
-15.894
-14.773
-13.329
-11.665
-9.845
-7.89
-5.755
-3.437
-0.983
1.552
4.096
6.606
9.073
11.492
13.864
16.192
18.474
20.719
22.952
25.198
27.475
29.797
32.169
34.606
37.131
39.771
42.558
45.516
48.66
52.007
55.57
59.361
63.393
67.67
72.196
76.976
82.015
87.318
92.889
98.73
104.839
111.21
117.838
124.712
131.817
139.137
146.653
154.347
162.197
170.18
178.271
186.448
194.684
202.953
211.222
219.458
227.624
235.682
243.593
251.317
258.812
266.039
272.958
279.534
285.736
291.534
296.891
301.77
306.131
309.94
313.176
315.818
317.847
319.258
320.049
320.239
319.864
318.949
317.505
315.533
313.021
309.964
306.362
302.211
297.509
292.254
286.434
280.055
273.135
265.67
257.645
249.016
239.704
229.675
218.935
207.512
195.463
182.863
169.783
156.335
142.658
128.874
115.101
101.435
87.938
74.708
61.865
49.554
37.957
27.207
17.379
8.532
0.692
-6.149
-12.014
-16.986
-21.201
-24.769
-27.776
-30.288
-32.336
-33.98
-35.308
-36.419
-37.431
-38.438
-39.498
-40.663
-41.978
-43.453
-45.081
-46.811
-48.541
-50.203
-51.758
-53.179
-54.471
-55.623
-56.613
-57.426
-58.045
-58.461
-58.672
-58.672
-58.452
-58.022
-57.402
-56.633
-55.778
-54.881
-53.97
-53.067
-52.182
-51.324
-50.504
-49.723
-48.975
-48.256
-47.564
-46.903
-46.278
-45.691
-45.137
-44.61
-44.1
-43.599
-43.104
-42.611
-42.118
-41.624
-41.13
-40.639
-40.159
-39.694
-39.249
-38.825
-38.422
-38.043
-37.69
-37.362
-37.061
-36.788
-36.544
-36.331
-36.153
-36.013
-35.912
-35.854
-35.841
-35.875
-35.959
-36.095
-36.283
-36.526
-36.824
-37.178
-37.589
-38.055
-38.577
-39.153
-39.781
-40.46
-41.187
-41.958
-42.771
-43.622
-44.506
-45.42
-46.36
-47.323
-48.303
-49.298
-50.304
-51.316
-52.332
-53.346
-54.355
-55.355
-56.342
-57.311
-58.261
-59.186
-60.084
-60.952
-61.787
-62.587
-63.35
-64.073
-64.755
-65.395
-65.993
-66.548
-67.06
-67.529
-67.956
-68.342
-68.689
-68.997
-69.268
-69.505
-69.709
-69.883
-70.029
-70.149
-70.246
-70.323
-70.383
-70.428
-70.462
-70.487
-70.506
-70.523
-70.539
-70.558
-70.582
-70.615
-70.658
-70.713
-70.784
-70.872
-70.979
-71.106
-71.256
-71.428
-71.624
-71.846
-72.093
-72.367
-72.668
-72.997
-73.353
-73.738
-74.151
-74.592
-75.061
-75.557
-76.079
-76.627
-77.199
-77.794
-78.41
-79.047
-79.701
-80.37
-81.053
-81.745
-82.446
-83.149
-83.854
-84.556
-85.251
-85.937
-86.61
-87.266
-87.902
-88.514
-89.099
-89.652
-90.168
-90.644
-91.073
-91.452
-91.775
-92.038
-92.236
-92.362
-92.415
-92.388
-92.279
-92.082
-91.795
-91.413
-90.935
-90.359
-89.682
-88.904
-88.025
-87.047
-85.97
-84.798
-83.536
-82.185
-80.751
-79.239
-77.654
-76.003
-74.293
-72.531
-70.725
-68.886
-67.025
-65.156
-63.291
-61.444
-59.63
-57.864
-56.161
-54.534
-52.997
-51.56
-50.235
-49.034
-47.97
-47.052
-46.292
-45.702
-45.294
-45.082
-45.072
-45.27
-45.677
-46.291
-47.114
-48.146
-49.387
-50.843
-52.511
-54.39
-56.481
-58.776
-61.258
-63.896
-66.643
-69.446
-72.259
-75.035
-77.732
-80.307
-82.71
-84.905
-86.871
-88.575
-89.993
-91.097
-91.858
-92.28
-92.398
-92.259
-91.958
-91.6
-91.276
-91.093
-91.126
-91.45
-92.163
-93.33
-95
-97.2
-99.893
-103.051
-106.701
-110.783
-115.122
-119.357
-122.853
-125.109
-125.862
-124.951
-122.294
-117.617
-110.711
-102.223
-93.414
-85.267
-78.471
-71.852
-63.811
-55.181
-45.924
-36.893
-28.203
-14.113
9.068
43.38
90.111
143.721
199.806
257.091
313.161
366.735
413.068
441.517
442.026
409.26
346.233
264.694
177.802
95.481
21.822
-44.24
-102.52
-151.121
-187.928
-210.233
-218.087
-214.605
-202.769
-186.102
-168.659
-152.8
-139.95
-131.165
-126.269
-124.428
-125.006
-126.791
-128.019
-127.768
-125.666
-121.648
-116.252
-110.007
-103.238
-96.489
-90.456
-85.523
-81.87
-79.502
-78.16
-77.632
-77.787
-78.441
-79.407
-80.53
-81.645
-82.591
-83.297
-83.709
-83.781
-83.501
-82.846
-81.797
-80.374
-78.623
-76.594
-74.337
-71.89
-69.279
-66.536
-63.706
-60.839
-57.994
-55.207
-52.493
-49.863
-47.319
-44.865
-42.5
-40.207
-37.955
-35.715
-33.462
-31.177
-28.842
-26.433
-23.92
-21.272
-18.461
-15.463
-12.258
-8.827
-5.148
-1.2
3.041
7.588
12.443
17.607
23.077
28.843
34.889
41.189
47.703
54.394
61.226
68.168
75.197
82.292
89.433
96.599
103.762
110.913
118.06
125.22
132.419
139.686
147.053
154.567
162.293
170.286
178.581
187.194
196.113
205.31
214.741
224.349
234.07
243.805
253.425
262.777
271.694
280.009
287.572
294.212
299.741
303.998
306.848
308.192
307.975
306.167
302.766
297.795
291.302
283.38
274.162
263.812
252.523
240.474
227.832
214.774
201.491
188.153
174.912
161.889
149.169
136.827
124.924
113.502
102.586
92.17
82.224
72.695
63.514
54.627
45.996
37.582
29.348
21.265
13.316
5.5
-2.162
-9.653
-16.956
-24.053
-30.921
-37.527
-43.83
-49.786
-55.347
-60.479
-65.158
-69.368
-73.097
-76.344
-79.11
-81.411
-83.269
-84.706
-85.74
-86.392
-86.681
-86.63
-86.266
-85.616
-84.706
-83.562
-82.208
-80.666
-78.958
-77.104
-75.122
-73.029
-70.84
-68.57
-66.236
-63.855
-61.444
-59.019
-56.593
-54.181
-51.795
-49.448
-47.149
-44.904
-42.721
-40.605
-38.558
-36.585
-34.686
-32.863
-31.115
-29.442
-27.842
-26.313
-24.854
-23.462
-22.133
-20.865
-19.654
-18.498
-17.393
-16.336
-15.322
-14.35
-13.413
-12.51
-11.635
-10.786
-9.957
-9.145
-8.348
-7.561
-6.783
-6.01
-5.242
-4.477
-3.715
-2.956
-2.201
-1.451
-0.708
0.028
0.753
1.466
2.164
2.845
3.505
4.143
4.756
5.343
5.901
6.429
6.924
7.386
7.812
8.2
8.547
8.847
9.101
9.308
9.468
9.579
9.643
9.656
9.621
9.538
9.408
9.229
8.999
8.716
8.38
7.997
7.574
7.118
6.631
6.108
5.546
4.947
4.31
3.636
2.926
2.175
1.389
0.577
-0.252
-1.083
-1.909
-2.732
-3.552
-4.381
-5.219
-6.027
-6.753
-7.335
-7.744
-8.01
-8.166
-8.207
-8.097
-7.808
-7.434
-7.177
-7.046
-6.842
-6.301
-5.133
-3.443
-1.574
0.633
3.399
6.387
9.206
11.034
11.616
12.955
15.726
18.514
18.513
10.43
-5.377
-22.373
-33.645
-30.984
-14.454
7.439
28.205
40.982
44.006
42.553
39.259
36.33
35.481
34.891
33.818
32.661
31.217
29.988
29.597
29.795
30.172
30.566
30.72
30.52
30.122
29.567
28.797
27.861
26.806
25.644
24.438
23.21
21.917
20.538
19.064
17.489
15.84
14.139
12.4
10.636
8.858
7.078
5.31
3.57
1.874
0.236
-1.331
-2.813
-4.195
-5.462
-6.598
-7.592
-8.441
-9.142
-9.692
-10.088
-10.326
-10.405
-10.324
-10.088
-9.699
-9.162
-8.482
-7.668
-6.731
-5.686
-4.548
-3.334
-2.059
-0.741
0.602
1.952
3.291
4.604
5.873
7.084
8.217
9.252
10.169
10.951
11.58
12.039
12.314
12.391
12.263
11.924
11.368
10.586
9.567
8.296
6.761
4.961
2.892
0.563
-2.007
-4.795
-7.768
-10.879
-14.094
-17.386
-20.725
-24.087
-27.436
-30.724
-33.915
-36.967
-39.84
-42.512
-44.95
-47.142
-49.131
-50.967
-52.711
-54.425
-56.116
-57.791
-59.505
-61.329
-63.359
-65.707
-68.396
-71.46
-75.001
-78.991
-83.304
-87.678
-91.575
-94.465
-96.042
-96.077
-94.441
-91.425
-87.476
-83.166
-79.489
-77.291
-77.065
-79.078
-83.089
-87.886
-91.754
-93.034
-89.704
-79.986
-62.5
-35.928
0.257
44.875
95.566
149.945
205.19
258.463
307.068
347.572
376.838
393.49
397.483
388.897
368.265
336.433
294.432
244.808
190.796
134.808
78.726
24.704
-25.065
-68.56
-103.897
-130.556
-149.113
-160.142
-164.386
-163.206
-158.439
-151.889
-145.353
-139.879
-135.663
-132.801
-131.227
-130.431
-129.585
-128.013
-125.132
-120.752
-115.204
-108.823
-101.946
-95.067
-88.708
-83.242
-78.937
-75.875
-73.925
-72.947
-72.791
-73.265
-74.193
-75.417
-76.796
-78.198
-79.486
-80.547
-81.3
-81.686
-81.668
-81.225
-80.344
-79.043
-77.372
-75.385
-73.136
-70.669
-68.015
-65.216
-62.318
-59.371
-56.432
-53.535
-50.695
-47.924
-45.227
-42.6
-40.033
-37.506
-34.982
-32.437
-29.847
-27.191
-24.449
-21.596
-18.603
-15.442
-12.086
-8.508
-4.686
-0.596
3.78
8.451
13.426
18.712
24.318
30.259
36.541
43.16
50.11
57.382
64.964
72.835
80.963
89.293
97.774
106.367
115.045
123.797
132.602
141.436
150.271
159.079
167.857
176.61
185.33
194.003
202.62
211.185
219.733
228.328
237.007
245.772
254.595
263.424
272.217
280.929
289.507
297.875
305.918
313.525
320.603
327.073
332.838
337.776
341.723
344.496
345.969
346.065
344.747
342.002
337.813
332.175
325.108
316.677
306.982
296.119
284.176
271.25
257.478
243.039
228.17
213.104
198.013
183.035
168.282
153.853
139.857
126.392
113.53
101.317
89.794
79.004
68.987
59.756
51.275
43.462
36.187
29.338
22.849
16.669
10.764
5.101
-0.357
-5.638
-10.755
-15.727
-20.592
-25.386
-30.144
-34.876
-39.552
-44.119
-48.493
-52.61
-56.429
-59.921
-63.069
-65.865
-68.304
-70.392
-72.149
-73.579
-74.672
-75.419
-75.811
-75.857
-75.584
-75.031
-74.248
-73.279
-72.164
-70.939
-69.632
-68.265
-66.852
-65.404
-63.922
-62.415
-60.899
-59.388
-57.898
-56.442
-55.027
-53.656
-52.331
-51.052
-49.817
-48.623
-47.471
-46.362
-45.299
-44.286
-43.33
-42.436
-41.606
-40.845
-40.151
-39.526
-38.969
-38.479
-38.052
-37.69
-37.389
-37.15
-36.972
-36.854
-36.794
-36.791
-36.844
-36.95
-37.108
-37.314
-37.566
-37.862
-38.201
-38.581
-39
-39.456
-39.949
-40.478
-41.039
-41.633
-42.257
-42.908
-43.584
-44.283
-45.001
-45.737
-46.487
-47.25
-48.023
-48.804
-49.591
-50.382
-51.174
-51.966
-52.755
-53.538
-54.314
-55.082
-55.838
-56.583
-57.313
-58.03
-58.73
-59.414
-60.079
-60.725
-61.351
-61.954
-62.535
-63.092
-63.625
-64.132
-64.614
-65.071
-65.503
-65.909
-66.292
-66.651
-66.988
-67.302
-67.596
-67.87
-68.125
-68.363
-68.586
-68.794
-68.989
-69.172
-69.344
-69.507
-69.66
-69.806
-69.943
-70.072
-70.194
-70.31
-70.42
-70.525
-70.625
-70.722
-70.815
-70.907
-70.997
-71.086
-71.174
-71.262
-71.349
-71.436
-71.523
-71.609
-71.695
-71.781
-71.865
-71.948
-72.029
-72.108
-72.185
-72.259
-72.33
-72.397
-72.462
-72.524
-72.584
-72.642
-72.701
-72.76
-72.82
-72.882
-72.947
-73.014
-73.085
-73.158
-73.234
-73.313
-73.395
-73.478
-73.563
-73.648
-73.735
-73.821
-73.906
-73.99
-74.07
-74.145
-74.214
-74.274
-74.325
-74.362
-74.385
-74.389
-74.372
-74.331
-74.262
-74.161
-74.023
-73.844
-73.619
-73.344
-73.013
-72.621
-72.165
-71.64
-71.044
-70.372
-69.622
-68.792
-67.878
-66.881
-65.798
-64.63
-63.375
-62.033
-60.608
-59.1
-57.514
-55.852
-54.121
-52.326
-50.477
-48.581
-46.649
-44.688
-42.709
-40.724
-38.746
-36.786
-34.853
-32.958
-31.116
-29.339
-27.644
-26.043
-24.546
-23.165
-21.915
-20.816
-19.889
-19.143
-18.581
-18.209
-18.044
-18.101
-18.388
-18.889
-19.575
-20.436
-21.482
-22.722
-24.133
-25.69
-27.397
-29.295
-31.425
-33.788
-36.315
-38.922
-41.603
-44.263
-46.582
-48.286
-49.294
-49.666
-49.713
-48.914
-45.705
-39.411
-31.118
-25.123
-27.465
-41
-63.113
-85.042
-96.925
-94.009
-78.788
-61.06
-50.355
-50.665
-60.674
-73.24
-81.512
-84.627
-84.677
-86.243
-95.181
-110.016
-125.658
-137.8
-138.869
-127.697
-107.641
-79.631
-48.178
-15.915
14.834
38.031
48.079
40.794
20.351
-2.807
-14.466
0.657
44.989
113.068
194.722
273.355
339.783
389.941
421.583
438.346
443.033
436.558
418.254
385.398
334.406
263.147
175.87
81.911
-5.089
-71.025
-109.696
-123.752
-122.711
-117.749
-114.974
-114.643
-113.528
-109.07
-101.861
-94.338
-89.149
-87.132
-87.355
-88.453
-88.953
-88.153
-85.83
-81.838
-76.42
-69.992
-63.04
-56.193
-50.069
-44.992
-41.135
-38.561
-37.145
-36.765
-37.269
-38.435
-40.055
-41.938
-43.927
-45.881
-47.663
-49.155
-50.269
-50.942
-51.137
-50.845
-50.06
-48.797
-47.104
-45.02
-42.59
-39.858
-36.859
-33.64
-30.251
-26.749
-23.19
-19.618
-16.055
-12.518
-9.017
-5.548
-2.107
1.324
4.776
8.27
11.826
15.46
19.187
23.025
26.994
31.117
35.412
39.897
44.587
49.496
54.638
60.024
65.66
71.55
77.696
84.099
90.761
97.682
104.861
112.292
119.97
127.886
136.03
144.39
152.95
161.691
170.592
179.632
188.785
198.026
207.327
216.658
225.987
235.282
244.509
253.634
262.619
271.427
280.021
288.363
296.414
304.136
311.491
318.441
324.949
330.982
336.506
341.489
345.903
349.719
352.916
355.47
357.364
358.581
359.11
358.939
358.064
356.481
354.191
351.197
347.507
343.129
338.078
332.37
326.025
319.065
311.515
303.403
294.76
285.62
276.018
265.992
255.583
244.832
233.781
222.475
210.959
199.277
187.474
175.596
163.685
151.786
139.939
128.186
116.567
105.118
93.876
82.874
72.146
61.721
51.627
41.889
32.531
23.572
15.031
6.924
-0.738
-7.943
-14.685
-20.96
-26.764
-32.1
-36.971
-41.384
-45.347
-48.871
-51.97
-54.659
-56.955
-58.875
-60.44
-61.669
-62.583
-63.202
-63.549
-63.646
-63.514
-63.176
-62.652
-61.965
-61.136
-60.186
-59.136
-58.005
-56.812
-55.574
-54.309
-53.038
-51.778
-50.545
-49.355
-48.215
-47.137
-46.141
-45.231
-44.398
-43.634
-42.928
-42.283
-41.726
-41.263
-40.867
-40.555
-40.385
-40.402
-40.653
-41.143
-41.791
-42.574
-43.567
-44.686
-45.634
-46.345
-46.901
-47.259
-47.725
-47.717
-45.42
-41.214
-36.755
-34.77
-40.403
-53.347
-68.426
-80.485
-82.208
-73.109
-60.102
-48.533
-44.169
-48.032
-54.948
-61.737
-66.233
-67.773
-68.466
-69.27
-70.114
-71.07
-71.822
-72.289
-72.754
-73.304
-73.89
-74.521
-75.209
-75.944
-76.715
-77.497
-78.242
-78.935
-79.603
-80.252
-80.882
-81.496
-82.094
-82.678
-83.258
-83.836
-84.412
-84.984
-85.554
-86.121
-86.687
-87.251
-87.815
-88.377
-88.937
-89.495
-90.052
-90.607
-91.16
-91.712
-92.263
-92.812
-93.359
-93.905
-94.448
-94.989
-95.527
-96.062
-96.592
-97.116
-97.633
-98.142
-98.641
-99.129
-99.603
-100.061
-100.503
-100.925
-101.328
-101.71
-102.07
-102.408
-102.723
-103.018
-103.29
-103.542
-103.775
-103.989
-104.185
-104.365
-104.531
-104.683
-104.824
-104.955
-105.078
-105.195
-105.309
-105.421
-105.534
-105.649
-105.771
-105.9
-106.04
-106.194
-106.364
-106.554
-106.767
-107.005
-107.27
-107.566
-107.895
-108.257
-108.655
-109.089
-109.558
-110.064
-110.604
-111.177
-111.783
-112.417
-113.077
-113.76
-114.461
-115.178
-115.905
-116.637
-117.371
-118.1
-118.819
-119.522
-120.204
-120.859
-121.478
-122.056
-122.585
-123.059
-123.469
-123.808
-124.07
-124.247
-124.331
-124.318
-124.2
-123.972
-123.629
-123.165
-122.578
-121.865
-121.023
-120.052
-118.952
-117.723
-116.368
-114.891
-113.296
-111.587
-109.771
-107.852
-105.839
-103.741
-101.566
-99.323
-97.023
-94.678
-92.301
-89.908
-87.516
-85.14
-82.797
-80.502
-78.275
-76.131
-74.085
-72.151
-70.34
-68.666
-67.142
-65.783
-64.601
-63.61
-62.825
-62.254
-61.907
-61.788
-61.901
-62.246
-62.823
-63.631
-64.671
-65.951
-67.474
-69.242
-71.252
-73.494
-75.945
-78.572
-81.335
-84.183
-87.073
-89.959
-92.796
-95.541
-98.148
-100.587
-102.835
-104.851
-106.598
-108.037
-109.144
-109.919
-110.407
-110.666
-110.763
-110.788
-110.805
-110.875
-111.099
-111.575
-112.41
-113.688
-115.422
-117.579
-120.188
-123.331
-126.975
-130.961
-134.866
-138.049
-140.122
-140.956
-140.476
-138.558
-135.067
-129.975
-123.857
-118.017
-113.336
-109.927
-107.327
-104.637
-101.224
-96.619
-89.468
-77.241
-57.629
-29.417
7.207
50.698
99.684
152.954
208.003
260.83
306.831
341.859
363.361
370.407
362.061
337.551
297.775
245.251
183.926
118.533
52.989
-9.551
-65.554
-111.767
-146.419
-168.979
-180.344
-182.654
-177.902
-168.16
-156.251
-144.708
-135.138
-128.49
-124.789
-123.336
-123.564
-124.694
-125.442
-124.865
-122.5
-118.211
-112.394
-105.619
-98.283
-90.868
-83.966
-77.945
-73.009
-69.22
-66.418
-64.429
-63.127
-62.351
-61.942
-61.783
-61.755
-61.741
-61.63
-61.328
-60.764
-59.893
-58.693
-57.151
-55.26
-53.044
-50.551
-47.831
-44.931
-41.892
-38.735
-35.495
-32.212
-28.932
-25.706
-22.568
-19.536
-16.618
-13.822
-11.142
-8.572
-6.095
-3.677
-1.289
1.092
3.494
5.937
8.447
11.055
13.793
16.69
19.776
23.074
26.601
30.379
34.424
38.755
43.397
48.361
53.651
59.268
65.209
71.465
78.025
84.862
91.929
99.185
106.587
114.107
121.738
129.465
137.269
145.13
153.02
160.934
168.89
176.895
184.946
193.047
201.195
209.422
217.8
226.375
235.173
244.188
253.362
262.643
271.982
281.304
290.521
299.508
308.096
316.151
323.571
330.246
336.08
340.935
344.623
347.004
347.979
347.486
345.523
342.093
337.197
330.893
323.28
314.5
304.744
294.167
282.876
270.994
258.635
245.944
233.113
220.288
207.579
195.081
182.855
170.965
159.479
148.417
137.76
127.467
117.461
107.694
98.174
88.899
79.87
71.083
62.495
54.083
45.877
37.904
30.145
22.584
15.203
7.996
1.032
-5.591
-11.849
-17.755
-23.163
-27.905
-32.065
-35.631
-38.573
-41.237
-42.745
-42.236
-40.982
-39.38
-39.75
-44.875
-51.727
-58.298
-61.582
-57.44
-49.582
-41.155
-34.325
-32.65
-33.622
-34.695
-35.312
-33.929
-31.471
-29.122
-26.677
-24.304
-21.939
-19.363
-16.747
-14.228
-11.779
-9.402
-7.122
-4.944
-2.869
-0.9
0.98
2.79
4.514
6.137
7.657
9.071
10.375
11.569
12.647
13.605
14.442
15.158
15.755
16.23
16.584
16.817
16.928
16.918
16.788
16.539
16.174
15.693
15.098
14.393
13.58
12.664
11.646
10.53
9.322
8.024
6.643
5.182
3.648
2.048
0.387
-1.325
-3.082
-4.875
-6.694
-8.531
-10.377
-12.221
-14.054
-15.866
-17.647
-19.389
-21.08
-22.712
-24.274
-25.758
-27.153
-28.452
-29.644
-30.722
-31.676
-32.499
-33.184
-33.723
-34.11
-34.339
-34.404
-34.301
-34.026
-33.576
-32.948
-32.143
-31.159
-29.998
-28.661
-27.152
-25.475
-23.633
-21.633
-19.48
-17.182
-14.745
-12.177
-9.486
-6.68
-3.769
-0.761
2.334
5.507
8.748
12.045
15.389
18.769
22.174
25.593
29.015
32.428
35.821
39.183
42.503
45.77
48.973
52.104
55.151
58.107
60.964
63.712
66.346
68.86
71.247
73.503
75.622
77.601
79.435
81.123
82.66
84.045
85.275
86.349
87.266
88.025
88.627
89.071
89.359
89.492
89.473
89.306
88.993
88.539
87.95
87.232
86.392
85.435
84.371
83.206
81.949
80.607
79.191
77.708
76.167
74.578
72.95
71.293
69.616
67.93
66.243
64.566
62.908
61.279
59.689
58.146
56.661
55.241
53.895
52.631
51.458
50.38
49.405
48.537
47.781
47.138
46.61
46.196
45.896
45.707
45.627
45.65
45.771
45.984
46.281
46.655
47.095
47.591
48.13
48.695
49.271
49.844
50.396
50.908
51.365
51.749
52.046
52.244
52.329
52.287
52.104
51.763
51.251
50.552
49.656
48.551
47.229
45.685
43.917
41.928
39.721
37.299
34.66
31.791
28.688
25.35
21.784
18.005
14.036
9.897
5.623
1.256
-3.16
-7.58
-11.965
-16.284
-20.509
-24.619
-28.575
-32.315
-35.787
-38.953
-41.8
-44.348
-46.608
-48.589
-50.31
-51.797
-53.118
-54.362
-55.602
-56.917
-58.366
-59.946
-61.746
-63.934
-66.527
-69.438
-72.371
-74.751
-76.154
-76.346
-74.988
-71.835
-66.95
-60.592
-53.672
-47.671
-43.755
-42.85
-45.617
-51.874
-60.74
-70.86
-79.78
-84.381
-81.778
-69.063
-44.066
-6.36
43.131
102.513
168.57
237.02
303.014
360.912
405.373
433.656
445.329
440.137
417.802
376.504
313.928
232.49
140.04
49.208
-26.728
-80.214
-111.512
-128.498
-140.015
-150.8
-161.296
-167.697
-167.462
-161.975
-154.209
-147.553
-143.812
-142.719
-143.342
-144.934
-146.841
-148.122
-147.978
-145.975
-142.046
-136.644
-130.373
-123.621
-116.814
-110.5
-105.052
-100.699
-97.514
-95.34
-93.992
-93.341
-93.243
-93.538
-94.065
-94.71
-95.395
-96.038
-96.577
-96.937
-96.99
-96.68
-96.073
-95.082
-93.424
-91.066
-88.138
-84.646
-80.945
-76.54
-69.656
-60.657
-51.315
-44.391
-45.072
-53.267
-63.79
-71.494
-69.157
-56.134
-39.182
-23.465
-14.761
-14.221
-16.643
-19.133
-18.615
-13.439
-6.953
-0.514
3.625
2.584
-0.185
-2.492
-1.51
6.937
19.144
31.916
43.06
48.98
52.273
55.586
59.548
65.766
73.286
80.901
88.826
96.89
105.156
113.844
122.77
131.78
140.885
150.077
159.317
168.583
177.858
187.099
196.274
205.375
214.361
223.146
231.667
239.863
247.661
255.044
262.018
268.517
274.458
279.931
285.045
289.658
293.745
297.31
300.016
302.732
306.303
309.51
311.99
311.532
305.472
296.768
287.374
280.185
279.216
280.908
282.263
281.257
274.496
264.429
253.542
242.388
232.479
222.957
212.683
201.837
190.285
178.144
165.73
153.037
140.053
126.896
113.642
100.319
86.996
73.771
60.725
47.947
35.544
23.578
12.152
1.422
-8.526
-17.658
-25.99
-33.62
-40.608
-46.974
-52.744
-57.934
-62.569
-66.694
-70.333
-73.49
-76.191
-78.476
-80.418
-82.136
-83.696
-85.121
-86.4
-87.474
-88.309
-88.903
-89.244
-89.321
-89.131
-88.671
-87.961
-87.046
-85.953
-84.695
-83.268
-81.647
-79.828
-77.833
-75.692
-73.454
-71.157
-68.83
-66.503
-64.213
-61.986
-59.841
-57.784
-55.808
-53.908
-52.092
-50.366
-48.744
-47.231
-45.828
-44.535
-43.351
-42.272
-41.297
-40.421
-39.635
-38.935
-38.317
-37.78
-37.327
-36.958
-36.671
-36.463
-36.334
-36.28
-36.299
-36.388
-36.542
-36.757
-37.031
-37.363
-37.75
-38.193
-38.69
-39.241
-39.846
-40.505
-41.218
-41.986
-42.809
-43.687
-44.619
-45.605
-46.645
-47.736
-48.879
-50.069
-51.307
-52.589
-53.912
-55.274
-56.672
-58.102
-59.562
-61.048
-62.558
-64.088
-65.634
-67.193
-68.762
-70.338
-71.917
-73.495
-75.068
-76.632
-78.183
-79.717
-81.228
-82.713
-84.167
-85.585
-86.963
-88.297
-89.584
-90.819
-92.001
-93.126
-94.193
-95.2
-96.148
-97.034
-97.86
-98.625
-99.33
-99.976
-100.562
-101.09
-101.561
-101.976
-102.337
-102.646
-102.904
-103.114
-103.279
-103.399
-103.479
-103.52
-103.526
-103.499
-103.443
-103.361
-103.257
-103.134
-102.997
-102.85
-102.698
-102.545
-102.394
-102.25
-102.115
-101.994
-101.889
-101.804
-101.742
-101.704
-101.694
-101.715
-101.771
-101.864
-101.998
-102.175
-102.397
-102.667
-102.986
-103.356
-103.781
-104.259
-104.792
-105.382
-106.032
-106.746
-107.527
-108.372
-109.278
-110.241
-111.26
-112.333
-113.461
-114.641
-115.866
-117.142
-118.481
-119.89
-121.381
-122.958
-124.593
-126.273
-127.996
-129.721
-131.431
-133.142
-134.825
-136.471
-138.146
-139.895
-141.723
-143.814
-146.31
-149.011
-151.877
-155.005
-157.994
-161.417
-166.036
-170.698
-174.934
-176.774
-172.945
-164.479
-153.718
-145.431
-146.499
-158.822
-179.265
-200.287
-213.04
-212.064
-198.754
-180.763
-165.249
-157.747
-158.853
-163.362
-167.66
-169.737
-169.728
-170.834
-174.862
-181.664
-190.322
-199.617
-208.938
-217.94
-225.55
-230.096
-229.644
-224.193
-216.363
-207.226
-196.942
-184.182
-164.988
-141.334
-120.282
-108.16
-112.157
-131.717
-157.893
-183.76
-202.962
-213.596
-219.432
-222.434
-223.877
-224.411
-223.703
-222.197
-220.189
-217.855
-215.702
-214.201
-214.267
-215.715
-216.043
-213.626
-208.18
-203.123
-206.255
-221.888
-249.473
-281.483
-303.992
-309.07
-296.437
-273.554
-254.61
-247.658
-253.355
-267.621
-282.242
-292.931
-299.938
-304.744
-309.716
-315.825
-322.659
-329.682
-336.36
-342.065
-345.561
-345.513
-341.354
-332.977
-320.862
-306.296
-290.417
-274.565
-261.447
-254.235
-255.229
-266.033
-285.647
-310.243
-337.132
-364.98
-395.507
-432.416
-473.996
-511.531
-529.536
-511.787
-452.884
-361.34
-254.18
-148.515
-53.278
33.533
113.988
183.972
236.06
258.994
248.495
211.346
156.304
93.82
30.695
-32.642
-94.942
-154.478
-208.646
-253.049
-285.576
-306.173
-316.303
-318.92
-316.672
-312.023
-306.245
-299.228
-291.241
-282.627
-276.629
-279.781
-295.878
-325.282
-360.418
-385.151
-386.189
-356.505
-301.312
-239.376
-189.985
-166.256
-169.473
-187.597
-205.12
-211.135
-202.426
-183.722
-163.039
-145.444
-132.42
-123.012
-114.855
-106.923
-99.332
-92.123
-85.35
-78.707
-71.668
-63.942
-55.431
-46.088
-35.913
-24.946
-13.248
-0.89
12.006
25.267
38.836
52.808
67.426
82.959
99.427
116.496
133.768
151.093
168.304
185.005
200.407
213.558
224.06
232.412
239.589
246.229
252.765
259.761
268.198
279.397
294.059
311.7
331.038
351.067
371.186
390.896
409.521
426
439.64
450.673
460.038
468.545
476.628
484.481
492.242
500.305
509.014
518.303
527.772
537.036
545.888
554.297
562.343
570.004
577.195
583.895
590.137
595.978
601.445
606.508
611.088
615.135
618.629
621.564
623.953
625.783
627.025
627.681
627.754
627.203
626.002
624.129
621.554
618.299
614.414
609.878
604.649
598.868
592.697
586.05
578.939
571.398
563.109
554.97
547.855
540.554
532.711
522.09
506.011
487.489
468.543
452.164
442.457
435.844
429.298
420.755
406.788
389.902
372.64
355.592
340.319
325.969
311.433
296.962
282.444
267.987
253.853
239.924
226.108
212.476
199.063
185.885
172.969
160.352
148.059
136.137
124.631
113.549
102.898
92.695
82.952
73.68
64.888
56.579
48.753
41.413
34.56
28.193
22.309
16.896
11.942
7.431
3.35
-0.309
-3.564
-6.44
-8.956
-11.113
-12.905
-14.327
-15.394
-16.153
-16.642
-16.864
-16.854
-16.7
-16.518
-16.421
-16.46
-16.589
-16.774
-17.091
-17.483
-17.637
-17.353
-16.612
-15.469
-14.334
-12.455
-7.795
0.06
9.763
16.521
13.196
-2.199
-25.563
-47.15
-55.373
-46.463
-25.427
-2.931
10.404
11.019
2.238
-9.232
-18.04
-22.7
-24.435
-25.416
-26.68
-28.1
-29.4
-30.381
-31.177
-32.048
-33.041
-34.118
-35.279
-36.518
-37.807
-39.096
-40.311
-41.403
-42.372
-43.232
-43.988
-44.633
-45.163
-45.579
-45.887
-46.093
-46.195
-46.194
-46.089
-45.884
-45.581
-45.187
-44.706
-44.144
-43.506
-42.799
-42.031
-41.209
-40.341
-39.436
-38.5
-37.543
-36.574
-35.599
-34.628
-33.668
-32.728
-31.813
-30.931
-30.087
-29.288
-28.536
-27.837
-27.193
-26.605
-26.076
-25.606
-25.194
-24.84
-24.542
-24.298
-24.105
-23.959
-23.857
-23.792
-23.761
-23.755
-23.769
-23.795
-23.826
-23.852
-23.867
-23.861
-23.826
-23.753
-23.634
-23.461
-23.225
-22.918
-22.534
-22.065
-21.506
-20.851
-20.095
-19.236
-18.27
-17.196
-16.014
-14.723
-13.325
-11.822
-10.216
-8.513
-6.715
-4.83
-2.862
-0.819
1.29
3.458
5.674
7.928
10.21
12.508
14.811
17.107
19.385
21.632
23.836
25.985
28.068
30.072
31.988
33.805
35.513
37.102
38.565
39.896
41.088
42.137
43.04
43.795
44.399
44.854
45.16
45.321
45.338
45.217
44.963
44.582
44.084
43.476
42.768
41.972
41.099
40.163
39.177
38.153
37.106
36.05
35
33.971
32.978
32.035
31.156
30.354
29.645
29.039
28.549
28.185
27.955
27.867
27.929
28.145
28.52
29.054
29.748
30.602
31.613
32.778
34.092
35.545
37.131
38.836
40.651
42.56
44.548
46.594
48.681
50.788
52.894
54.979
57.02
58.994
60.882
62.664
64.319
65.827
67.164
68.311
69.247
69.951
70.405
70.588
70.485
70.084
69.381
68.368
67.036
65.375
63.37
61.016
58.317
55.274
51.89
48.178
44.159
39.875
35.383
30.731
25.96
21.103
16.185
11.254
6.369
1.587
-3.04
-7.487
-11.734
-15.747
-19.492
-22.959
-26.188
-29.275
-32.329
-35.422
-38.587
-41.829
-45.191
-48.777
-52.703
-57.082
-61.982
-67.356
-73.195
-79.587
-86.487
-93.725
-100.951
-107.474
-112.692
-116.421
-118.511
-118.853
-117.601
-114.763
-110.621
-106.223
-102.479
-99.723
-98.004
-96.691
-94.538
-90.847
-84.731
-74.291
-57.668
-33.261
-0.007
41.537
89.582
142.804
199.663
257.313
312.309
360.465
397.671
421.524
430.938
424.555
401.124
360.953
305.825
239.239
165.736
89.252
13.179
-58.405
-120.9
-171.035
-207.167
-229.32
-239.068
-238.269
-228.829
-213.693
-196.753
-181.009
-168.325
-159.631
-154.727
-153.167
-154.553
-157.751
-160.989
-163.101
-163.55
-162.223
-159.585
-156.083
-151.972
-147.795
-144.272
-141.82
-140.62
-140.644
-141.596
-143.238
-145.426
-147.932
-150.527
-153.021
-155.211
-156.973
-158.272
-159.064
-159.323
-159.034
-158.169
-156.733
-154.772
-152.338
-149.488
-146.279
-142.753
-138.963
-134.968
-130.831
-126.626
-122.404
-118.194
-114.018
-109.891
-105.822
-101.821
-97.883
-93.989
-90.119
-86.258
-82.392
-78.513
-74.608
-70.658
-66.644
-62.545
-58.347
-54.04
-49.612
-45.05
-40.345
-35.49
-30.481
-25.315
-19.991
-14.502
-8.844
-3.014
2.99
9.168
15.52
22.044
28.736
35.59
42.595
49.742
57.018
64.408
71.899
79.471
87.106
94.783
102.478
110.169
117.83
125.434
132.952
140.356
147.617
154.706
161.594
168.252
174.65
180.76
186.556
192.01
197.097
201.792
206.072
209.914
213.3
216.211
218.631
220.545
221.942
222.813
223.152
222.953
222.215
220.94
219.129
216.79
213.932
210.565
206.705
202.367
197.57
192.336
186.689
180.653
174.256
167.526
160.492
153.186
145.638
137.882
129.949
121.872
113.685
105.421
97.111
88.789
80.485
72.232
64.058
55.992
48.063
40.296
32.718
25.351
18.218
11.338
4.731
-1.586
-7.601
-13.299
-18.672
-23.71
-28.408
-32.762
-36.769
-40.431
-43.748
-46.724
-49.364
-51.675
-53.664
-55.341
-56.717
-57.802
-58.609
-59.15
-59.44
-59.493
-59.324
-58.948
-58.381
-57.638
-56.737
-55.692
-54.52
-53.238
-51.861
-50.405
-48.883
-47.31
-45.704
-44.082
-42.458
-40.845
-39.25
-37.685
-36.172
-34.714
-33.303
-31.934
-30.596
-29.298
-28.073
-26.93
-25.844
-24.842
-23.99
-23.341
-22.95
-22.822
-22.877
-23.095
-23.562
-24.181
-24.636
-24.871
-24.973
-24.895
-24.992
-24.566
-21.674
-16.848
-11.819
-9.627
-15.823
-29.736
-45.869
-58.631
-60.098
-50.207
-36.346
-24.193
-20.02
-24.562
-32.259
-39.809
-44.823
-46.729
-47.799
-48.977
-50.203
-51.537
-52.624
-53.395
-54.151
-54.969
-55.794
-56.634
-57.497
-58.369
-59.234
-60.06
-60.792
-61.414
-61.95
-62.405
-62.776
-63.062
-63.263
-63.379
-63.42
-63.387
-63.281
-63.102
-62.853
-62.537
-62.158
-61.72
-61.229
-60.689
-60.104
-59.481
-58.824
-58.139
-57.433
-56.711
-55.979
-55.243
-54.51
-53.785
-53.074
-52.382
-51.717
-51.083
-50.486
-49.932
-49.424
-48.969
-48.57
-48.232
-47.958
-47.751
-47.615
-47.551
-47.561
-47.646
-47.807
-48.043
-48.355
-48.741
-49.199
-49.729
-50.327
-50.99
-51.716
-52.501
-53.342
-54.234
-55.173
-56.156
-57.177
-58.232
-59.318
-60.429
-61.56
-62.708
-63.868
-65.035
-66.204
-67.373
-68.535
-69.689
-70.829
-71.954
-73.06
-74.144
-75.206
-76.242
-77.252
-78.236
-79.192
-80.119
-81.019
-81.892
-82.738
-83.558
-84.353
-85.123
-85.869
-86.593
-87.296
-87.977
-88.638
-89.277
-89.896
-90.492
-91.066
-91.616
-92.139
-92.634
-93.098
-93.528
-93.922
-94.276
-94.585
-94.846
-95.053
-95.203
-95.29
-95.307
-95.249
-95.111
-94.885
-94.567
-94.151
-93.629
-92.997
-92.248
-91.379
-90.386
-89.265
-88.012
-86.626
-85.105
-83.451
-81.665
-79.75
-77.709
-75.549
-73.278
-70.906
-68.443
-65.9
-63.291
-60.628
-57.927
-55.203
-52.467
-49.735
-47.022
-44.345
-41.721
-39.169
-36.704
-34.344
-32.111
-30.027
-28.11
-26.377
-24.837
-23.502
-22.387
-21.509
-20.889
-20.538
-20.459
-20.655
-21.132
-21.89
-22.921
-24.202
-25.684
-27.326
-29.097
-30.974
-32.941
-34.97
-37.017
-39.034
-40.987
-42.861
-44.655
-46.357
-47.936
-49.385
-50.731
-52.049
-53.45
-55.018
-56.797
-58.816
-61.089
-63.659
-66.605
-70.001
-73.885
-78.268
-83.093
-88.34
-94.075
-100.22
-106.54
-112.643
-117.874
-121.648
-123.749
-124.011
-122.245
-118.548
-113.058
-106.179
-99.13
-93.136
-88.673
-85.781
-83.899
-81.963
-79.299
-74.805
-66.011
-50.147
-24.982
9.643
51.155
97.068
145.733
198.194
257.513
321.639
384.995
437.605
465.407
461.692
425.537
360.956
279.431
190.753
103.251
26.535
-34.044
-75.795
-99.095
-110.679
-117.172
-122.478
-127.707
-129.879
-127.071
-120.009
-110.872
-102.821
-97.398
-94.223
-92.384
-90.722
-88.235
-84.54
-79.323
-72.393
-64.036
-54.708
-44.933
-35.342
-26.539
-18.874
-12.567
-7.729
-4.268
-2.07
-1.002
-0.86
-1.437
-2.553
-4.049
-5.775
-7.586
-9.339
-10.919
-12.243
-13.258
-13.939
-14.269
-14.249
-13.906
-13.279
-12.413
-11.349
-10.12
-8.767
-7.337
-5.884
-4.468
-3.132
-1.897
-0.775
0.231
1.13
1.932
2.663
3.361
4.059
4.787
5.571
6.435
7.403
8.506
9.776
11.239
12.921
14.843
17.025
19.485
22.24
25.3
28.675
32.367
36.382
40.727
45.405
50.419
55.768
61.45
67.46
73.791
80.435
87.378
94.603
102.092
109.823
117.775
125.922
134.236
142.688
151.247
159.881
168.556
177.238
185.889
194.472
202.95
211.285
219.44
227.376
235.055
242.44
249.496
256.186
262.477
268.335
273.73
278.632
283.013
286.848
290.115
292.794
294.866
296.318
297.137
297.317
296.852
295.741
293.987
291.593
288.57
284.928
280.683
275.852
270.456
264.518
258.065
251.124
243.728
235.907
227.698
219.135
210.257
201.101
191.708
182.118
172.372
162.511
152.576
142.609
132.649
122.737
112.913
103.213
93.675
84.333
75.22
66.368
57.805
49.557
41.648
34.099
26.927
20.15
13.778
7.822
2.288
-2.82
-7.501
-11.757
-15.591
-19.01
-22.023
-24.641
-26.877
-28.746
-30.265
-31.452
-32.328
-32.913
-33.23
-33.303
-33.155
-32.811
-32.296
-31.635
-30.855
-29.979
-29.032
-28.038
-27.021
-26.001
-25
-24.038
-23.131
-22.296
-21.547
-20.897
-20.357
-19.936
-19.641
-19.478
-19.45
-19.559
-19.807
-20.192
-20.713
-21.366
-22.146
-23.048
-24.064
-25.188
-26.41
-27.721
-29.111
-30.569
-32.085
-33.647
-35.244
-36.864
-38.495
-40.126
-41.745
-43.344
-44.91
-46.435
-47.911
-49.33
-50.685
-51.971
-53.183
-54.318
-55.373
-56.348
-57.24
-58.052
-58.782
-59.434
-60.01
-60.512
-60.944
-61.311
-61.616
-61.865
-62.062
-62.212
-62.322
-62.397
-62.444
-62.467
-62.473
-62.469
-62.461
-62.455
-62.457
-62.473
-62.509
-62.571
-62.662
-62.788
-62.952
-63.159
-63.41
-63.709
-64.057
-64.457
-64.909
-65.415
-65.975
-66.59
-67.26
-67.984
-68.764
-69.597
-70.485
-71.426
-72.421
-73.468
-74.567
-75.718
-76.919
-78.17
-79.47
-80.817
-82.21
-83.647
-85.125
-86.643
-88.198
-89.788
-91.41
-93.061
-94.739
-96.441
-98.164
-99.903
-101.657
-103.422
-105.193
-106.966
-108.738
-110.504
-112.26
-114
-115.72
-117.415
-119.08
-120.709
-122.298
-123.84
-125.331
-126.766
-128.139
-129.446
-130.682
-131.843
-132.925
-133.925
-134.841
-135.669
-136.408
-137.056
-137.613
-138.078
-138.451
-138.732
-138.922
-139.023
-139.039
-138.97
-138.821
-138.596
-138.299
-137.937
-137.514
-137.037
-136.512
-135.945
-135.343
-134.712
-134.06
-133.393
-132.717
-132.038
-131.362
-130.697
-130.047
-129.419
-128.815
-128.242
-127.703
-127.203
-126.743
-126.328
-125.958
-125.636
-125.363
-125.142
-124.972
-124.855
-124.788
-124.774
-124.81
-124.896
-125.03
-125.21
-125.433
-125.698
-126.003
-126.348
-126.732
-127.153
-127.614
-128.117
-128.665
-129.261
-129.908
-130.611
-131.372
-132.198
-133.091
-134.053
-135.088
-136.2
-137.394
-138.678
-140.058
-141.538
-143.126
-144.83
-146.66
-148.624
-150.727
-152.966
-155.346
-157.874
-160.563
-163.428
-166.474
-169.698
-173.094
-176.661
-180.39
-184.265
-188.251
-192.293
-196.34
-200.354
-204.31
-208.183
-211.935
-215.513
-218.857
-221.927
-224.707
-227.201
-229.404
-231.298
-232.892
-234.23
-235.407
-236.548
-237.769
-239.133
-240.685
-242.49
-244.618
-247.18
-250.305
-254.039
-258.362
-263.213
-268.488
-274.146
-280.218
-286.495
-292.524
-297.834
-301.896
-304.442
-305.563
-305.066
-302.382
-297.227
-289.724
-280.295
-269.905
-259.04
-247.173
-233.988
-219.734
-204.522
-188.007
-169.18
-145.93
-116.552
-81.092
-40.096
6.094
56.909
110.93
165.512
216.338
258.718
289.631
307.091
309.158
294.231
262.108
214.336
154.538
87.783
18.521
-49.44
-111.87
-164.422
-204.118
-229.606
-241.276
-241.191
-231.592
-214.599
-193.143
-170.754
-150.024
-132.489
-118.787
-108.501
-101.059
-96.018
-92.359
-88.597
-83.842
-77.774
-70.416
-62.277
-53.816
-45.288
-37.178
-30.1
-24.381
-20.14
-17.323
-15.639
-14.86
-14.838
-15.344
-16.151
-17.06
-17.854
-18.407
-18.678
-18.612
-18.177
-17.35
-16.094
-14.408
-12.33
-9.89
-7.121
-4.058
-0.719
2.862
6.642
10.578
14.619
18.737
22.921
27.169
31.483
35.872
40.345
44.922
49.639
54.521
59.593
64.873
70.375
76.116
82.117
88.397
94.971
101.85
109.042
116.552
124.384
132.537
141.008
149.785
158.856
168.204
177.815
187.672
197.757
208.048
218.524
229.162
239.938
250.83
261.81
272.849
283.915
294.975
305.995
316.938
327.765
338.436
348.91
359.146
369.104
378.745
388.032
396.924
405.381
413.357
420.813
427.719
434.049
439.782
444.909
449.422
453.329
456.648
459.402
461.61
463.29
464.45
465.096
465.231
464.86
463.993
462.628
460.743
458.311
455.293
451.649
447.339
442.308
436.481
429.795
422.202
413.674
404.215
393.848
382.62
370.593
357.838
344.465
330.617
316.461
302.185
287.973
273.995
260.44
247.514
235.408
224.284
214.276
205.468
197.917
191.651
186.666
182.934
180.377
178.88
178.292
178.43
179.131
180.248
181.622
183.087
184.488
185.689
186.582
187.1
187.189
186.809
185.944
184.593
182.791
180.6
178.103
175.404
172.585
169.709
166.837
164.029
161.334
158.792
156.425
154.23
152.207
150.356
148.669
147.137
145.735
144.426
143.17
141.919
140.64
139.31
137.911
136.434
134.871
133.223
131.498
129.714
127.884
126.017
124.123
122.208
120.285
118.366
116.464
114.593
112.762
110.98
109.252
107.583
105.975
104.429
102.941
101.508
100.125
98.791
97.504
96.261
95.062
93.903
92.781
91.694
90.639
89.61
88.602
87.608
86.622
85.638
84.649
83.649
82.632
81.592
80.523
79.422
78.282
77.1
75.87
74.591
73.259
71.872
70.428
68.927
67.37
65.756
64.092
62.377
60.611
58.795
56.931
55.022
53.076
51.096
49.077
47.026
44.966
42.914
40.89
38.9
36.922
34.957
33.037
31.147
29.231
27.249
25.151
22.935
20.68
18.411
16.052
13.683
11.601
9.873
8.412
7.257
6.096
5.495
7.279
11.09
15.236
16.985
11.141
-2.085
-17.462
-29.811
-31.769
-22.735
-9.716
1.876
6.251
2.295
-4.759
-11.676
-16.315
-17.978
-18.763
-19.684
-20.727
-22.018
-23.295
-24.477
-25.773
-27.254
-28.955
-30.794
-32.477
-33.94
-35.255
-36.357
-37.534
-38.124
-36.256
-32.408
-28.288
-26.822
-33.413
-47.552
-63.861
-76.914
-79.009
-69.895
-56.796
-45.279
-41.433
-46.126
-53.94
-61.607
-66.825
-68.979
-70.286
-71.704
-73.169
-74.749
-76.105
-77.162
-78.216
-79.351
-80.512
-81.706
-82.941
-84.203
-85.475
-86.726
-87.899
-88.977
-89.978
-90.906
-91.752
-92.515
-93.187
-93.766
-94.255
-94.652
-94.951
-95.148
-95.24
-95.223
-95.096
-94.858
-94.507
-94.042
-93.463
-92.768
-91.957
-91.032
-89.994
-88.847
-87.594
-86.24
-84.794
-83.264
-81.664
-80.003
-78.294
-76.549
-74.782
-73.005
-71.232
-69.472
-67.737
-66.039
-64.395
-62.818
-61.324
-59.925
-58.63
-57.451
-56.398
-55.482
-54.708
-54.08
-53.606
-53.297
-53.17
-53.248
-53.546
-54.068
-54.813
-55.779
-56.959
-58.345
-59.919
-61.644
-63.49
-65.43
-67.44
-69.498
-71.566
-73.591
-75.52
-77.298
-78.885
-80.268
-81.441
-82.397
-83.153
-83.724
-84.127
-84.426
-84.685
-84.962
-85.363
-85.99
-86.932
-88.345
-90.401
-93.127
-96.431
-100.061
-103.576
-106.618
-108.936
-110.19
-110.109
-108.788
-106.67
-104.62
-103.768
-104.871
-108.309
-114.419
-123.178
-133.744
-144.497
-153.026
-156.61
-153.105
-140.887
-118.419
-84.788
-40.451
12.759
71.725
132.67
192.06
246.478
292.203
325.983
345.961
351.756
344.43
326.016
298.697
264.942
227.748
189.861
153.315
119.279
87.833
58.301
29.935
1.999
-26.062
-54.333
-82.965
-111.668
-139.301
-164.195
-184.464
-198.705
-206.603
-208.387
-203.761
-192.945
-177.018
-157.737
-137.726
-119.062
-102.557
-88.867
-79.263
-74.485
-74.613
-78.929
-85.514
-92.905
-100.585
-107.938
-114.02
-118.182
-120.037
-119.814
-118.629
-117.234
-115.822
-114.602
-113.759
-113.423
-113.742
-114.565
-115.36
-115.79
-115.743
-115.174
-114.179
-112.822
-111.1
-109.085
-106.93
-104.746
-102.615
-100.586
-98.637
-96.754
-94.947
-93.214
-91.557
-89.972
-88.437
-86.925
-85.41
-83.868
-82.279
-80.625
-78.884
-77.029
-75.035
-72.877
-70.541
-68.009
-65.263
-62.282
-59.042
-55.525
-51.719
-47.614
-43.201
-38.469
-33.41
-28.015
-22.28
-16.205
-9.789
-3.035
4.053
11.464
19.185
27.197
35.478
44.006
52.755
61.694
70.793
80.019
89.334
98.703
108.085
117.441
126.727
135.901
144.917
153.732
162.302
170.582
178.529
186.1
193.253
199.95
206.151
211.821
216.923
221.428
225.305
228.528
231.075
232.926
234.066
234.483
234.169
233.123
231.345
228.841
225.618
221.691
217.076
211.794
205.867
199.325
192.196
184.515
176.318
167.644
158.533
149.029
139.176
129.02
118.608
107.987
97.205
86.31
75.351
64.374
53.428
42.557
31.809
21.225
10.848
0.716
-9.132
-18.663
-27.844
-36.647
-45.047
-53.019
-60.545
-67.608
-74.194
-80.293
-85.897
-91.004
-95.61
-99.719
-103.334
-106.463
-109.116
-111.304
-113.042
-114.346
-115.234
-115.724
-115.839
-115.601
-115.033
-114.159
-113.005
-111.596
-109.96
-108.121
-106.106
-103.942
-101.652
-99.263
-96.796
-94.276
-91.723
-89.159
-86.601
-84.069
-81.578
-79.144
-76.779
-74.497
-72.307
-70.218
-68.239
-66.374
-64.63
-63.009
-61.513
-60.145
-58.903
-57.787
-56.796
-55.925
-55.171
-54.529
-53.994
-53.559
-53.218
-52.963
-52.787
-52.682
-52.641
-52.654
-52.714
-52.814
-52.946
-53.101
-53.275
-53.459
-53.648
-53.835
-54.017
-54.187
-54.342
-54.478
-54.593
-54.682
-54.745
-54.779
-54.783
-54.756
-54.697
-54.606
-54.483
-54.328
-54.142
-53.926
-53.681
-53.409
-53.112
-52.792
-52.451
-52.092
-51.717
-51.329
-50.931
-50.525
-50.114
-49.701
-49.288
-48.876
-48.468
-48.066
-47.671
-47.283
-46.904
-46.533
-46.172
-45.819
-45.476
-45.14
-44.812
-44.491
-44.175
-43.864
-43.557
-43.252
-42.948
-42.645
-42.341
-42.034
-41.724
-41.408
-41.087
-40.757
-40.418
-40.069
-39.707
-39.332
-38.943
-38.538
-38.117
-37.68
-37.226
-36.757
-36.272
-35.772
-35.26
-34.736
-34.204
-33.666
-33.124
-32.583
-32.046
-31.516
-30.998
-30.495
-30.013
-29.554
-29.123
-28.725
-28.363
-28.042
-27.765
-27.537
-27.361
-27.242
-27.183
-27.188
-27.261
-27.405
-27.622
-27.916
-28.288
-28.741
-29.274
-29.89
-30.588
-31.367
-32.226
-33.164
-34.176
-35.259
-36.409
-37.621
-38.89
-40.208
-41.57
-42.967
-44.394
-45.842
-47.304
-48.77
-50.233
-51.683
-53.113
-54.512
-55.871
-57.18
-58.43
-59.61
-60.712
-61.726
-62.644
-63.456
-64.155
-64.733
-65.184
-65.5
-65.676
-65.707
-65.59
-65.321
-64.9
-64.327
-63.6
-62.723
-61.698
-60.53
-59.224
-57.785
-56.22
-54.534
-52.738
-50.84
-48.851
-46.781
-44.642
-42.448
-40.213
-37.957
-35.694
-33.442
-31.216
-29.035
-26.915
-24.872
-22.919
-21.068
-19.332
-17.724
-16.258
-14.949
-13.809
-12.852
-12.087
-11.523
-11.17
-11.028
-11.098
-11.38
-11.874
-12.587
-13.529
-14.705
-16.115
-17.76
-19.631
-21.71
-23.968
-26.362
-28.838
-31.347
-33.846
-36.3
-38.675
-40.927
-43.016
-44.899
-46.537
-47.903
-48.971
-49.711
-50.114
-50.21
-50.071
-49.801
-49.517
-49.304
-49.218
-49.334
-49.759
-50.61
-52.008
-54.038
-56.687
-59.962
-63.941
-68.594
-73.789
-79.215
-84.246
-88.284
-91.077
-92.421
-92.157
-90.411
-87.177
-82.733
-78.119
-74.248
-71.481
-69.881
-68.779
-66.877
-63.413
-57.376
-46.779
-29.773
-4.718
29.387
71.696
120.242
173.465
229.471
285.473
338.207
383.476
417.463
438.41
445.679
438.649
416.924
380.671
331.406
272.62
208.344
141.76
75.671
12.993
-42.934
-88.83
-122.914
-145.243
-156.921
-159.363
-154.114
-143.162
-129.367
-115.674
-103.992
-95.205
-89.391
-86.19
-85.238
-85.831
-86.659
-86.555
-84.94
-81.704
-77.174
-71.836
-66.019
-60.152
-54.854
-50.544
-47.414
-45.481
-44.532
-44.333
-44.729
-45.536
-46.551
-47.624
-48.608
-49.355
-49.806
-49.91
-49.616
-48.912
-47.783
-46.212
-44.21
-41.802
-39.016
-35.91
-32.55
-28.979
-25.239
-21.4
-17.579
-13.939
-10.599
-7.585
-4.862
-2.402
-0.222
1.779
3.924
6.528
9.682
13.267
16.979
21.459
28.271
37.916
49.407
58.656
59.608
49.871
31.651
12.094
1.811
6.992
27.241
57.643
88.135
109.664
119.004
115.389
103.639
92.103
85.395
87.03
96.656
109.289
121.987
132.762
140.942
148.315
155.693
163.034
170.378
177.379
183.982
190.524
197.15
203.858
210.665
217.566
224.579
231.771
239.17
246.761
254.526
262.432
270.44
278.505
286.56
294.517
302.259
309.625
316.489
322.752
328.307
333.062
336.881
339.585
341.035
341.133
339.821
337.095
332.96
327.421
320.539
312.417
303.199
293.077
282.204
270.689
258.654
246.211
233.504
220.72
208.004
195.463
183.189
171.244
159.687
148.583
137.945
127.748
117.94
108.444
99.211
90.234
81.498
72.993
64.7
56.58
48.621
40.834
33.224
25.798
18.561
11.509
4.661
-1.942
-8.256
-14.231
-19.836
-25.058
-29.888
-34.319
-38.352
-41.986
-45.234
-48.121
-50.667
-52.886
-54.793
-56.401
-57.729
-58.804
-59.65
-60.294
-60.758
-61.063
-61.228
-61.272
-61.212
-61.06
-60.828
-60.522
-60.151
-59.727
-59.26
-58.759
-58.233
-57.69
-57.138
-56.584
-56.035
-55.494
-54.966
-54.451
-53.951
-53.468
-53.003
-52.555
-52.125
-51.711
-51.315
-50.936
-50.572
-50.223
-49.887
-49.564
-49.253
-48.953
-48.665
-48.388
-48.123
-47.872
-47.637
-47.42
-47.224
-47.052
-46.906
-46.789
-46.706
-46.658
-46.65
-46.685
-46.765
-46.896
-47.08
-47.32
-47.62
-47.982
-48.41
-48.905
-49.468
-50.102
-50.805
-51.58
-52.425
-53.341
-54.327
-55.377
-56.493
-57.674
-58.92
-60.23
-61.599
-63.019
-64.486
-66.006
-67.568
-69.147
-70.724
-72.274
-73.791
-75.295
-76.784
-78.217
-79.607
-81.014
-82.487
-84.076
-85.787
-87.524
-89.259
-91.081
-92.904
-94.388
-95.428
-96.089
-96.319
-96.471
-95.962
-92.793
-87.344
-81.516
-78.362
-83.61
-97.106
-113.106
-125.928
-127.638
-117.474
-102.699
-88.915
-82.339
-84.305
-89.532
-93.804
-92.766
-84.775
-73.339
-64.669
-66.094
-80.871
-105.146
-128.009
-137.37
-127.957
-103.734
-76.813
-58.918
-54.807
-62.063
-72.885
-81.076
-84.738
-84.698
-83.578
-82.753
-82.059
-81.277
-80.158
-78.794
-77.522
-76.432
-75.477
-74.667
-74.008
-73.479
-73.036
-72.608
-72.14
-71.628
-71.097
-70.557
-70.001
-69.428
-68.838
-68.237
-67.631
-67.021
-66.404
-65.778
-65.143
-64.5
-63.853
-63.202
-62.55
-61.897
-61.245
-60.597
-59.954
-59.318
-58.689
-58.068
-57.456
-56.854
-56.262
-55.677
-55.101
-54.532
-53.969
-53.413
-52.861
-52.312
-51.766
-51.221
-50.676
-50.13
-49.579
-49.024
-48.461
-47.889
-47.306
-46.711
-46.101
-45.474
-44.829
-44.164
-43.478
-42.769
-42.037
-41.279
-40.495
-39.686
-38.854
-37.999
-37.124
-36.231
-35.327
-34.419
-33.516
-32.625
-31.753
-30.909
-30.101
-29.338
-28.628
-27.975
-27.384
-26.863
-26.418
-26.061
-25.802
-25.649
-25.608
-25.686
-25.89
-26.224
-26.694
-27.301
-28.046
-28.934
-29.973
-31.177
-32.558
-34.118
-35.853
-37.753
-39.794
-41.954
-44.203
-46.498
-48.804
-51.083
-53.296
-55.41
-57.389
-59.191
-60.782
-62.122
-63.168
-63.9
-64.307
-64.409
-64.267
-63.941
-63.496
-63.006
-62.51
-62.088
-61.859
-61.94
-62.464
-63.521
-65.1
-67.234
-70.023
-73.425
-77.32
-81.391
-85.015
-87.812
-89.72
-90.644
-90.539
-89.455
-87.27
-84.243
-81.313
-78.894
-76.899
-75.133
-72.781
-68.925
-63.222
-54.949
-42.469
-24.74
-0.968
29.599
66.129
107.19
151.941
199.003
246.027
290.993
331.107
362.818
384.596
395.883
395.677
383.744
360.277
325.135
280.129
228.85
173.439
115.67
57.925
1.937
-49.641
-92.95
-126.508
-150.76
-165.196
-170.969
-169.669
-160.664
-146.3
-128.311
-106.135
-83.804
-64.405
-51.198
-48.734
-54.056
-62.653
-70.253
-72.434
-71.026
-68.244
-64.97
-62.458
-59.404
-55.503
-51.925
-48.954
-47.044
-46.318
-46.232
-46.709
-47.881
-49.419
-50.997
-52.358
-53.238
-53.662
-53.743
-53.469
-52.799
-51.73
-50.273
-48.495
-46.482
-44.267
-41.877
-39.343
-36.7
-34.004
-31.312
-28.673
-26.121
-23.663
-21.303
-19.036
-16.851
-14.751
-12.728
-10.743
-8.766
-6.771
-4.729
-2.634
-0.482
1.77
4.17
6.713
9.401
12.237
15.21
18.366
21.775
25.42
29.256
33.427
38.102
43.198
48.74
54.768
60.937
68.173
77.37
87.2
97.235
105.045
107.726
108.403
109.15
113.088
124.525
139.642
155.201
168.966
177.234
182.585
187.64
192.96
200.146
208.258
216.101
223.933
231.641
239.322
247.208
255.083
262.719
270.053
276.979
283.394
289.25
294.506
299.119
303.075
306.371
308.935
310.678
311.488
311.204
309.719
306.978
302.984
297.815
291.568
284.357
276.274
267.389
257.76
247.439
236.45
224.788
212.499
199.668
186.449
173.077
159.734
146.552
133.612
120.936
108.533
96.411
84.574
73.026
61.801
50.941
40.538
30.731
21.601
13.176
5.418
-1.804
-8.58
-14.959
-20.977
-26.641
-31.955
-36.927
-41.546
-45.781
-49.634
-53.126
-56.321
-59.332
-62.228
-65.038
-67.751
-70.3
-72.643
-74.766
-76.648
-78.275
-79.642
-80.743
-81.599
-82.257
-82.742
-83.066
-83.223
-83.178
-82.921
-82.462
-81.824
-81.049
-80.17
-79.21
-78.198
-77.167
-76.143
-75.143
-74.172
-73.221
-72.284
-71.365
-70.469
-69.607
-68.783
-67.995
-67.242
-66.52
-65.824
-65.15
-64.493
-63.843
-63.192
-62.538
-61.878
-61.217
-60.554
-59.888
-59.221
-58.552
-57.882
-57.211
-56.539
-55.864
-55.187
-54.506
-53.824
-53.142
-52.462
-51.786
-51.116
-50.456
-49.809
-49.179
-48.571
-47.989
-47.436
-46.919
-46.441
-46.007
-45.621
-45.289
-45.013
-44.8
-44.651
-44.571
-44.561
-44.624
-44.76
-44.97
-45.253
-45.608
-46.034
-46.529
-47.09
-47.716
-48.403
-49.147
-49.945
-50.792
-51.684
-52.615
-53.578
-54.569
-55.579
-56.604
-57.636
-58.668
-59.695
-60.709
-61.704
-62.673
-63.608
-64.504
-65.354
-66.151
-66.89
-67.565
-68.171
-68.705
-69.162
-69.54
-69.838
-70.052
-70.182
-70.227
-70.188
-70.065
-69.858
-69.57
-69.202
-68.757
-68.237
-67.646
-66.988
-66.266
-65.484
-64.646
-63.756
-62.818
-61.837
-60.815
-59.758
-58.67
-57.555
-56.417
-55.263
-54.094
-52.917
-51.736
-50.553
-49.372
-48.197
-47.031
-45.875
-44.733
-43.605
-42.494
-41.402
-40.329
-39.275
-38.243
-37.23
-36.239
-35.267
-34.316
-33.383
-32.469
-31.574
-30.697
-29.838
-28.998
-28.175
-27.371
-26.584
-25.816
-25.065
-24.331
-23.613
-22.912
-22.225
-21.553
-20.894
-20.247
-19.613
-18.989
-18.374
-17.768
-17.168
-16.574
-15.983
-15.394
-14.805
-14.214
-13.62
-13.02
-12.412
-11.795
-11.164
-10.518
-9.852
-9.164
-8.449
-7.702
-6.919
-6.096
-5.227
-4.309
-3.336
-2.304
-1.209
-0.046
1.187
2.495
3.881
5.347
6.896
8.531
10.252
12.059
13.954
15.936
18.004
20.155
22.389
24.703
27.093
29.556
32.086
34.68
37.33
40.029
42.771
45.546
48.346
51.16
53.979
56.791
59.586
62.353
65.079
