Name,Aleksandre Beruashvili
Date of Birth,"Dec 20, 1998"
Recorded Date,2024-05-19 16:01:33 +0400
Classification,High Heart Rate
Symptoms,
Software Version,1.90
Device,"Watch7,2"
Sample Rate,512 hertz


Lead,Lead I
Unit,µV

4.578
3.811
2.927
1.932
0.833
-0.361
-1.642
-3
-4.424
-5.905
-7.432
-8.991
-10.573
-12.163
-13.75
-15.322
-16.866
-18.37
-19.822
-21.211
-22.527
-23.76
-24.901
-25.941
-26.873
-27.69
-28.388
-28.961
-29.407
-29.724
-29.911
-29.968
-29.898
-29.702
-29.385
-28.949
-28.4
-27.742
-26.982
-26.126
-25.178
-24.145
-23.033
-21.85
-20.603
-19.298
-17.941
-16.54
-15.101
-13.63
-12.132
-10.612
-9.076
-7.526
-5.967
-4.402
-2.835
-1.269
0.297
1.859
3.418
4.972
6.523
8.07
9.618
11.167
12.719
14.276
15.842
17.418
19.007
20.609
22.22
23.837
25.458
27.08
28.698
30.308
31.904
33.483
35.048
36.596
38.126
39.632
41.106
42.54
43.926
45.257
46.522
47.711
48.815
49.833
50.768
51.62
52.383
53.038
53.558
53.921
54.109
54.111
53.917
53.528
52.956
52.231
51.407
50.531
49.636
48.741
47.856
46.992
46.178
45.455
44.868
44.446
44.209
44.172
44.325
44.61
44.936
45.153
45.084
44.6
43.579
41.895
39.436
36.078
31.677
26.146
19.367
11.133
1.422
-9.616
-21.624
-33.86
-45.559
-56.143
-64.809
-70.637
-73.369
-73.182
-70.883
-68.365
-67.134
-68.044
-72.448
-81.566
-95.22
-112.364
-130.384
-144.611
-151.344
-147.454
-128.666
-91.097
-31.973
48.003
143.095
246.057
349.634
452.745
559.988
667.945
770.051
849.971
877.279
837.037
721.95
534.117
304.552
61.333
-166.117
-342.219
-458.012
-514.591
-522.572
-509.559
-489.504
-466.623
-441.324
-405.234
-358.428
-307.921
-259.288
-219.405
-191.282
-173.746
-165.812
-164.939
-167.045
-169.111
-169.501
-167.345
-162.731
-155.957
-146.736
-135.721
-124.891
-115.915
-109.758
-106.747
-106.415
-108.277
-112.278
-118.011
-124.612
-131.323
-137.513
-142.827
-147.295
-150.937
-153.605
-155.205
-155.67
-154.905
-152.913
-149.738
-145.396
-139.993
-133.713
-126.718
-119.194
-111.332
-103.248
-95.024
-86.714
-78.316
-69.822
-61.251
-52.633
-44.018
-35.453
-26.953
-18.515
-10.12
-1.722
6.715
15.231
23.872
32.66
41.596
50.668
59.837
69.053
78.279
87.48
96.62
105.675
114.611
123.394
131.986
140.347
148.434
156.204
163.612
170.612
177.165
183.235
188.792
193.81
198.265
202.131
205.388
208.015
209.993
211.307
211.942
211.886
211.132
209.676
207.519
204.664
201.122
196.904
192.025
186.506
180.369
173.641
166.353
158.537
150.229
141.467
132.291
122.744
112.871
102.716
92.327
81.752
71.039
60.238
49.397
38.565
27.789
17.117
6.593
-3.738
-13.837
-23.662
-33.177
-42.347
-51.14
-59.527
-67.482
-74.982
-82.01
-88.549
-94.587
-100.117
-105.134
-109.638
-113.631
-117.119
-120.111
-122.619
-124.659
-126.248
-127.406
-128.154
-128.517
-128.52
-128.19
-127.554
-126.642
-125.483
-124.106
-122.543
-120.824
-118.978
-117.034
-115.02
-112.964
-110.891
-108.826
-106.791
-104.807
-102.894
-101.07
-99.349
-97.745
-96.27
-94.932
-93.738
-92.691
-91.794
-91.047
-90.446
-89.987
-89.663
-89.466
-89.385
-89.41
-89.529
-89.727
-89.991
-90.305
-90.652
-91.018
-91.383
-91.731
-92.043
-92.303
-92.493
-92.597
-92.598
-92.482
-92.234
-91.842
-91.296
-90.584
-89.698
-88.63
-87.374
-85.927
-84.288
-82.455
-80.429
-78.214
-75.815
-73.242
-70.509
-67.628
-64.614
-61.482
-58.252
-54.943
-51.571
-48.154
-44.705
-41.239
-37.774
-34.33
-30.927
-27.587
-24.333
-21.189
-18.177
-15.318
-12.63
-10.127
-7.813
-5.698
-3.792
-2.109
-0.675
0.487
1.363
1.939
2.21
2.186
1.886
1.342
0.602
-0.298
-1.323
-2.436
-3.623
-4.857
-6.125
-7.415
-8.687
-9.898
-11.024
-12.042
-12.966
-13.87
-14.808
-15.86
-17.129
-18.66
-20.541
-22.89
-25.784
-29.329
-33.605
-38.594
-44.396
-51.23
-59.091
-67.821
-76.982
-85.685
-93.221
-99.17
-102.912
-103.865
-101.937
-97.335
-91.17
-85.676
-82.668
-83.34
-88.845
-99.658
-115.164
-134.146
-153.656
-168.687
-174.704
-168.043
-144.781
-102.09
-39.458
42.819
140.151
242.414
342.795
436.385
519.449
594.171
654.003
683.634
670.765
602.388
481.072
327.379
161.118
3.291
-134.275
-252.313
-349.11
-423.268
-473.033
-494.232
-487.558
-456.89
-407.106
-345.675
-279.962
-216.172
-159.72
-113.678
-79.382
-57.859
-48.836
-50.304
-59.422
-72.455
-85.721
-97.254
-105.861
-110.244
-109.936
-105.238
-96.927
-86.757
-76.669
-67.546
-59.844
-53.971
-49.88
-47.428
-46.378
-46.005
-45.468
-44.343
-42.424
-39.632
-36.074
-31.775
-26.715
-20.998
-14.769
-8.12
-1.115
6.223
13.906
21.892
30.103
38.478
46.967
55.547
64.218
72.986
81.853
90.826
99.917
109.129
118.46
127.907
137.457
147.096
156.813
166.603
176.463
186.39
196.375
206.402
216.449
226.49
236.495
246.43
256.259
265.946
275.459
284.767
293.84
302.648
311.159
319.343
327.17
334.607
341.623
348.185
354.264
359.831
364.861
369.33
373.217
376.506
379.18
381.228
382.64
383.41
383.537
383.019
381.859
380.064
377.643
374.609
370.977
366.766
361.998
356.697
350.89
344.608
337.881
330.745
323.234
315.385
307.237
298.83
290.204
281.4
272.46
263.427
254.343
245.249
236.188
227.2
218.324
209.597
201.055
192.732
184.658
176.862
169.37
162.206
155.392
148.947
142.886
137.223
131.968
127.128
122.709
118.712
115.136
111.977
109.228
106.882
104.928
103.352
102.14
101.276
100.742
100.52
100.587
100.923
101.504
102.305
103.304
104.475
105.794
107.235
108.775
110.391
112.059
113.759
115.468
117.167
118.837
120.457
122.012
123.486
124.864
126.132
127.281
128.3
129.182
129.92
130.512
130.954
131.243
131.378
131.359
131.189
130.869
130.404
129.796
129.054
128.183
127.193
126.092
124.889
123.595
122.218
120.768
119.257
117.694
116.086
114.444
112.776
111.091
109.4
107.709
106.026
104.356
102.705
101.079
99.481
97.91
96.364
94.841
93.337
91.85
90.376
88.91
87.446
85.984
84.522
83.061
81.597
80.125
78.637
77.128
75.59
74.011
72.382
70.692
68.933
67.104
65.212
63.257
61.236
59.14
56.954
54.669
52.279
49.78
47.165
44.445
41.643
38.804
35.991
33.252
30.624
28.137
25.81
23.669
21.75
20.07
18.65
17.506
16.648
16.097
15.865
15.9
16.101
16.349
16.477
16.367
15.961
15.137
13.79
11.815
9.065
5.466
1.015
-4.376
-10.831
-18.315
-26.676
-35.44
-43.777
-50.995
-56.477
-59.549
-59.78
-57.065
-51.652
-44.611
-37.597
-32.003
-29.127
-30.113
-35.148
-43.586
-53.964
-63.279
-67.814
-64.092
-48.387
-17.286
30.981
96.672
178.397
272.144
372.507
473.508
567.688
646.649
703.057
730.934
725.479
687.11
618.282
519.709
396.873
253.212
92.567
-68.986
-218.039
-340.289
-420.739
-463.278
-473.415
-456.945
-425.235
-378.928
-319.523
-253.405
-184.598
-120.577
-68.258
-30.293
-7.694
0.422
-3.532
-16.536
-35.235
-56.269
-76.166
-92.205
-103.13
-108.439
-108.434
-104.275
-97.21
-88.629
-80.316
-73.549
-68.836
-66.352
-65.823
-66.68
-68.481
-70.701
-72.64
-73.89
-74.292
-73.78
-72.49
-70.561
-68.036
-65.007
-61.585
-57.812
-53.734
-49.386
-44.769
-39.931
-34.919
-29.756
-24.467
-19.057
-13.515
-7.836
-2.008
3.991
10.169
16.525
23.055
29.742
36.576
43.554
50.672
57.931
65.326
72.848
80.485
88.222
96.038
103.904
111.789
119.654
127.465
135.192
142.803
150.266
157.55
164.621
171.444
177.988
184.218
190.099
195.599
200.682
205.319
209.482
213.148
216.293
218.898
220.945
222.42
223.312
223.611
223.312
222.41
220.905
218.801
216.102
212.818
208.961
204.548
199.596
194.127
188.167
181.743
174.885
167.626
160.001
152.047
143.803
135.307
126.601
117.726
108.723
99.635
90.503
81.366
72.266
63.239
54.323
45.553
36.961
28.579
20.436
12.559
4.973
-2.301
-9.243
-15.835
-22.063
-27.914
-33.381
-38.455
-43.134
-47.417
-51.306
-54.805
-57.921
-60.666
-63.051
-65.09
-66.801
-68.202
-69.311
-70.15
-70.739
-71.102
-71.26
-71.237
-71.054
-70.734
-70.299
-69.772
-69.172
-68.521
-67.837
-67.14
-66.446
-65.772
-65.133
-64.542
-64.014
-63.559
-63.188
-62.911
-62.737
-62.67
-62.717
-62.88
-63.163
-63.564
-64.082
-64.714
-65.455
-66.3
-67.242
-68.274
-69.388
-70.575
-71.826
-73.131
-74.48
-75.861
-77.263
-78.675
-80.086
-81.484
-82.859
-84.198
-85.491
-86.728
-87.901
-89
-90.019
-90.947
-91.777
-92.502
-93.116
-93.615
-93.991
-94.242
-94.364
-94.357
-94.226
-93.974
-93.607
-93.128
-92.545
-91.867
-91.102
-90.255
-89.331
-88.334
-87.27
-86.15
-84.984
-83.785
-82.563
-81.332
-80.108
-78.906
-77.738
-76.611
-75.523
-74.477
-73.482
-72.549
-71.701
-70.954
-70.32
-69.811
-69.442
-69.21
-69.109
-69.114
-69.178
-69.271
-69.371
-69.458
-69.527
-69.56
-69.529
-69.421
-69.218
-68.901
-68.466
-67.887
-67.156
-66.331
-65.49
-64.73
-64.176
-63.887
-63.917
-64.379
-65.368
-67.002
-69.41
-72.618
-76.689
-81.806
-88.027
-95.26
-103.226
-111.208
-118.424
-124.3
-128.13
-129.142
-127.036
-121.938
-114.588
-106.833
-100.655
-97.601
-99.414
-107.572
-122.232
-142.265
-165.303
-187.027
-202.327
-206.471
-194.006
-159.46
-101.78
-24.304
68.994
171.477
281.811
405.718
539.169
671.337
780.38
833.653
816.079
728.366
586.18
417.62
238.312
58.28
-112.689
-264.591
-379.098
-444.251
-462.866
-449.379
-423.693
-398.452
-375.027
-347.777
-312.686
-271.456
-228.71
-189.738
-156.601
-128.752
-105.952
-87.944
-74.721
-66.054
-61.459
-60.624
-63.39
-69.171
-76.561
-84.081
-90.423
-94.862
-97.116
-97.028
-94.606
-90.292
-85.091
-79.865
-75.267
-71.599
-68.774
-66.685
-65.196
-63.988
-62.555
-60.538
-57.726
-54.057
-49.677
-44.699
-39.191
-33.259
-27.031
-20.602
-14.05
-7.427
-0.723
6.063
12.918
19.833
26.794
33.795
40.85
47.977
55.189
62.494
69.892
77.376
84.942
92.584
100.294
108.064
115.879
123.723
131.58
139.435
147.273
155.072
162.806
170.444
177.956
185.314
192.492
199.465
206.206
212.687
218.883
224.767
230.316
235.501
240.297
244.676
248.613
252.085
255.073
257.559
259.525
260.96
261.851
262.191
261.974
261.196
259.856
257.956
255.499
252.493
248.948
244.876
240.293
235.215
229.664
223.661
217.231
210.401
203.199
195.656
187.802
179.671
171.298
162.717
153.966
145.079
136.096
127.052
117.986
108.932
99.927
91.005
82.199
73.541
65.061
56.787
48.744
40.958
33.45
26.239
19.344
12.779
6.556
0.686
-4.823
-9.966
-14.739
-19.142
-23.175
-26.843
-30.149
-33.102
-35.711
-37.986
-39.94
-41.585
-42.937
-44.012
-44.827
-45.399
-45.746
-45.888
-45.844
-45.633
-45.275
-44.789
-44.194
-43.509
-42.752
-41.94
-41.089
-40.213
-39.328
-38.445
-37.578
-36.737
-35.933
-35.174
-34.469
-33.825
-33.247
-32.742
-32.312
-31.959
-31.684
-31.488
-31.371
-31.331
-31.366
-31.473
-31.65
-31.893
-32.197
-32.557
-32.966
-33.416
-33.902
-34.413
-34.944
-35.483
-36.024
-36.559
-37.081
-37.585
-38.066
-38.518
-38.938
-39.321
-39.664
-39.965
-40.22
-40.429
-40.588
-40.698
-40.763
-40.785
-40.772
-40.73
-40.665
-40.586
-40.502
-40.42
-40.346
-40.284
-40.236
-40.206
-40.2
-40.226
-40.293
-40.413
-40.596
-40.855
-41.202
-41.644
-42.184
-42.822
-43.551
-44.368
-45.27
-46.261
-47.357
-48.574
-49.919
-51.402
-53.018
-54.753
-56.591
-58.503
-60.447
-62.383
-64.272
-66.077
-67.781
-69.373
-70.848
-72.19
-73.353
-74.298
-74.995
-75.434
-75.648
-75.668
-75.517
-75.233
-74.87
-74.506
-74.272
-74.285
-74.639
-75.426
-76.672
-78.479
-81.09
-84.564
-88.788
-93.435
-97.83
-101.367
-103.684
-104.205
-102.195
-97.485
-90.322
-81.66
-73.505
-67.549
-64.996
-67.443
-76.177
-91.109
-111.108
-133.339
-153.103
-166.383
-169.212
-156.339
-123.678
-68.994
6.546
96.53
195.307
299.354
406.241
515.436
616.407
691.162
725.19
705.215
632.681
522.249
381.899
220.254
46.069
-133.921
-298.339
-422.968
-496.505
-519.085
-507.172
-481.797
-453.117
-422.334
-384.603
-336.694
-282.149
-227.641
-180.189
-144.234
-121.122
-110.424
-110.517
-119.362
-134.384
-153.151
-173.469
-192.693
-208.67
-220.267
-226.963
-229.08
-227.657
-223.523
-217.666
-211.595
-206.355
-202.465
-200.168
-199.178
-199.037
-199.471
-200.056
-200.205
-199.579
-198.001
-195.415
-191.974
-187.794
-182.921
-177.45
-171.479
-165.078
-158.315
-151.237
-143.865
-136.228
-128.359
-120.285
-112.034
-103.615
-95.031
-86.28
-77.354
-68.259
-59.006
-49.605
-40.08
-30.448
-20.724
-10.919
-1.041
8.902
18.894
28.921
38.97
49.021
59.048
69.023
78.912
88.681
98.303
107.752
117.002
126.027
134.798
143.291
151.48
159.339
166.841
173.958
180.664
186.934
192.745
198.077
202.912
207.232
211.023
214.271
216.965
219.097
220.658
221.642
222.045
221.865
221.103
219.762
217.848
215.368
212.332
208.754
204.649
200.036
194.933
189.363
183.349
176.917
170.094
162.907
155.386
147.561
139.462
131.122
122.572
113.845
104.973
95.988
86.922
77.806
68.671
59.548
50.465
41.452
32.535
23.743
15.099
6.63
-1.643
-9.699
-17.516
-25.077
-32.365
-39.366
-46.067
-52.456
-58.526
-64.268
-69.678
-74.752
-79.486
-83.881
-87.936
-91.654
-95.037
-98.089
-100.813
-103.216
-105.303
-107.083
-108.562
-109.75
-110.656
-111.29
-111.661
-111.782
-111.662
-111.312
-110.744
-109.969
-108.999
-107.845
-106.519
-105.032
-103.396
-101.622
-99.722
-97.707
-95.587
-93.373
-91.072
-88.695
-86.25
-83.744
-81.185
-78.58
-75.937
-73.264
-70.567
-67.855
-65.133
-62.406
-59.682
-56.964
-54.258
-51.568
-48.897
-46.251
-43.632
-41.047
-38.501
-35.999
-33.548
-31.154
-28.821
-26.558
-24.368
-22.259
-20.234
-18.3
-16.462
-14.728
-13.107
-11.607
-10.238
-9.013
-7.946
-7.048
-6.331
-5.806
-5.481
-5.366
-5.466
-5.787
-6.332
-7.108
-8.122
-9.386
-10.91
-12.702
-14.767
-17.108
-19.725
-22.618
-25.783
-29.208
-32.881
-36.796
-40.957
-45.388
-50.103
-55.102
-60.376
-65.913
-71.69
-77.693
-83.887
-90.208
-96.593
-102.982
-109.33
-115.631
-121.873
-128.029
-134.048
-139.856
-145.396
-150.668
-155.689
-160.456
-164.98
-169.255
-173.304
-177.271
-181.317
-185.583
-190.199
-195.233
-200.702
-206.704
-213.452
-220.985
-229.163
-237.642
-245.785
-253.08
-259.241
-263.798
-266.109
-265.978
-263.586
-259.664
-255.89
-253.654
-253.802
-257.639
-266.216
-279.254
-295.723
-313.326
-327.996
-336.321
-335.173
-319.994
-287.021
-234.612
-164.35
-81.822
6.413
95.622
186.052
279.078
369.364
446.286
491.678
484.11
415.094
288.948
119.941
-64.466
-238.482
-386.524
-496.335
-568.531
-613.625
-637.56
-647.51
-645.697
-625.746
-586.614
-530.952
-463.772
-394.379
-329.204
-271.193
-223.095
-187.199
-164.543
-154.918
-156.817
-167.603
-184.796
-206.53
-230.153
-252.126
-270.065
-282.803
-290.027
-292.498
-291.007
-286.066
-278.884
-271.295
-264.487
-259.072
-255.268
-252.68
-250.976
-250.013
-249.356
-248.395
-246.778
-244.334
-241.046
-237.126
-232.707
-227.827
-222.589
-217.094
-211.403
-205.57
-199.586
-193.388
-186.944
-180.237
-173.251
-165.984
-158.423
-150.543
-142.34
-133.816
-124.975
-115.833
-106.403
-96.701
-86.744
-76.547
-66.13
-55.516
-44.73
-33.797
-22.743
-11.593
-0.378
10.862
22.092
33.276
44.379
55.367
66.204
76.854
87.28
97.445
107.311
116.84
125.992
134.728
143.011
150.807
158.082
164.807
170.955
176.504
181.431
185.72
189.357
192.33
194.631
196.254
197.198
197.463
197.055
195.981
194.254
191.887
188.896
185.304
181.131
176.406
171.154
165.409
159.202
152.571
145.554
138.192
130.526
122.601
114.463
106.158
97.731
89.229
80.699
72.185
63.731
55.381
47.175
39.151
31.348
23.8
16.54
9.595
2.995
-3.239
-9.085
-14.525
-19.543
-24.129
-28.273
-31.968
-35.211
-38.002
-40.344
-42.241
-43.704
-44.744
-45.376
-45.617
-45.487
-45.008
-44.207
-43.108
-41.741
-40.136
-38.322
-36.33
-34.194
-31.945
-29.614
-27.233
-24.833
-22.441
-20.089
-17.804
-15.612
-13.537
-11.601
-9.822
-8.219
-6.807
-5.599
-4.607
-3.84
-3.304
-3.005
-2.947
-3.132
-3.559
-4.222
-5.112
-6.217
-7.519
-9.01
-10.677
-12.504
-14.471
-16.559
-18.745
-21.006
-23.324
-25.669
-28.014
-30.325
-32.568
-34.724
-36.77
-38.693
-40.485
-42.105
-43.52
-44.696
-45.592
-46.218
-46.587
-46.68
-46.495
-46.024
-45.225
-44.18
-42.984
-41.494
-39.623
-37.267
-34.259
-30.814
-27.225
-23.411
-19.34
-15.361
-11.66
-8.667
-6.919
-5.927
-5.133
-4.566
-4.103
-3.414
-2.393
-0.413
3.242
7.911
12.916
18.128
23.219
28.032
32.592
36.327
38.632
39.965
40.782
41.261
41.739
42.216
42.572
43.086
44.041
45.26
46.56
47.772
48.606
48.981
48.901
48.264
46.995
45.094
42.51
39.243
35.368
30.886
25.83
20.143
13.659
6.442
-1.272
-9.088
-16.312
-22.211
-26.236
-27.624
-25.643
-20.363
-11.98
-1.134
10.183
19.821
25.793
25.719
20.195
13.241
7.069
2.906
-2.327
-15.787
-35.953
-51.473
-42.445
12.136
118.061
262.414
417.981
557.307
663.499
730.918
763.458
763.813
732.168
671.185
582.914
470.47
336.476
182.113
14.776
-148.88
-285.191
-374.436
-409.432
-395.796
-348.029
-277.754
-193.643
-106.703
-31.446
15.056
24.305
2.553
-31.371
-56.605
-62.623
-51.076
-32.361
-15.914
-4.787
2.499
9.679
18.188
26.929
34.469
39.564
42.163
42.907
42.218
40.452
38.005
35.233
32.484
30.043
28.003
26.413
25.348
24.855
24.976
25.735
27.133
29.161
31.808
35.037
38.802
43.057
47.743
52.797
58.15
63.722
69.462
75.341
81.342
87.462
93.703
100.067
106.565
113.221
120.05
127.068
134.284
141.7
149.32
157.151
165.199
173.471
181.965
190.67
199.573
208.656
217.899
227.278
236.762
246.315
255.904
265.497
275.06
284.563
293.97
303.245
312.351
321.252
329.912
338.291
346.352
354.055
361.363
368.241
374.657
380.579
385.979
390.83
395.108
398.792
401.865
404.31
406.115
407.269
407.766
407.603
406.779
405.297
403.164
400.389
396.984
392.965
388.352
383.164
377.428
371.169
364.417
357.204
349.565
341.534
333.149
324.45
315.476
306.27
296.871
287.322
277.663
267.936
258.178
248.43
238.726
229.103
219.594
210.23
201.041
192.055
183.297
174.79
166.557
158.615
150.981
143.669
136.691
130.055
123.769
117.836
112.257
107.032
102.158
97.628
93.436
89.573
86.025
82.782
79.827
77.145
74.719
72.53
70.561
68.792
67.206
65.783
64.505
63.357
62.319
61.377
60.515
59.716
58.966
58.253
57.561
56.878
56.194
55.499
54.782
54.036
53.255
52.433
51.566
50.649
49.68
48.657
47.579
46.448
45.264
44.033
42.758
41.444
40.098
38.727
37.34
35.944
34.546
33.152
31.768
30.401
29.055
27.735
26.445
25.191
23.975
22.803
21.677
20.603
19.58
18.61
17.691
16.818
15.988
15.196
14.438
13.708
13.003
12.32
11.656
11.015
10.395
9.792
9.203
8.617
8.024
7.415
6.778
6.106
5.394
4.634
3.827
2.981
2.099
1.183
0.225
-0.801
-1.914
-3.127
-4.444
-5.86
-7.359
-8.93
-10.543
-12.155
-13.722
-15.2
-16.556
-17.787
-18.89
-19.864
-20.689
-21.308
-21.675
-21.775
-21.623
-21.263
-20.74
-20.093
-19.375
-18.672
-18.108
-17.829
-17.965
-18.619
-19.872
-21.741
-24.343
-27.922
-32.527
-38.008
-43.955
-49.587
-54.244
-57.541
-58.942
-57.826
-54.07
-47.923
-40.438
-33.735
-29.652
-29.46
-34.353
-44.876
-60.374
-79.467
-99.199
-114.745
-121.475
-115.174
-91.811
-48.888
14.028
95.953
193.304
299.618
407.592
509.045
595.092
657.981
691.687
691.607
655.976
586.418
486.894
363.93
226.13
82.543
-57.724
-185.492
-292.828
-374.068
-426.075
-448.531
-443.403
-413.914
-364.654
-301.821
-232.495
-163.45
-100.21
-46.72
-5.489
21.801
34.693
34.484
24.019
6.89
-13.369
-33.64
-51.649
-65.517
-74.021
-77.003
-75.177
-69.874
-62.721
-55.329
-48.722
-43.591
-40.289
-38.688
-38.514
-39.321
-40.471
-41.313
-41.462
-40.739
-39.116
-36.723
-33.634
-29.907
-25.652
-20.983
-15.991
-10.734
-5.244
0.463
6.373
12.461
18.707
25.096
31.632
38.327
45.206
52.293
59.593
67.103
74.814
82.71
90.782
99.02
107.412
115.948
124.618
133.409
142.308
151.301
160.364
169.467
178.577
187.653
196.658
205.56
214.325
222.918
231.308
239.458
247.335
254.906
262.134
268.983
275.417
281.397
286.89
291.864
296.288
300.137
303.384
306.009
307.992
309.318
309.974
309.95
309.239
307.838
305.747
302.969
299.511
295.383
290.598
285.173
279.129
272.489
265.279
257.528
249.268
240.534
231.361
221.788
211.857
201.607
191.084
180.33
169.392
158.315
147.145
135.928
124.708
113.529
102.434
91.466
80.662
70.062
59.7
49.609
39.821
30.365
21.264
12.544
4.223
-3.682
-11.155
-18.186
-24.767
-30.893
-36.561
-41.772
-46.53
-50.84
-54.712
-58.156
-61.186
-63.819
-66.07
-67.962
-69.513
-70.748
-71.69
-72.363
-72.794
-73.007
-73.031
-72.89
-72.61
-72.219
-71.741
-71.202
-70.626
-70.037
-69.458
-68.91
-68.415
-67.99
-67.655
-67.426
-67.315
-67.337
-67.503
-67.822
-68.303
-68.952
-69.774
-70.773
-71.949
-73.302
-74.83
-76.529
-78.392
-80.413
-82.583
-84.891
-87.327
-89.877
-92.531
-95.275
-98.096
-100.98
-103.911
-106.877
-109.859
-112.845
-115.819
-118.764
-121.666
-124.509
-127.28
-129.971
-132.571
-135.074
-137.47
-139.753
-141.92
-143.963
-145.877
-147.653
-149.28
-150.753
-152.066
-153.219
-154.213
-155.051
-155.735
-156.273
-156.674
-156.941
-157.08
-157.091
-156.966
-156.712
-156.333
-155.842
-155.268
-154.635
-153.962
-153.267
-152.559
-151.833
-151.085
-150.29
-149.407
-148.409
-147.264
-145.948
-144.461
-142.787
-140.923
-138.867
-136.584
-134.047
-131.248
-128.192
-124.926
-121.533
-118.081
-114.662
-111.4
-108.413
-105.875
-103.95
-102.756
-102.434
-103.044
-104.674
-107.557
-111.742
-117.085
-123.286
-129.694
-135.647
-140.779
-144.48
-145.93
-144.961
-141.725
-136.892
-132.232
-129.165
-128.545
-131.807
-140.112
-153.101
-169.625
-187.361
-202.13
-210.151
-208.014
-190.981
-154.637
-98.834
-27.044
56.351
144.682
237.75
342.379
456.29
570.712
665.601
708.024
679.927
580.686
426.719
252.561
84.443
-64.288
-190.008
-299.117
-392.598
-465.985
-515.157
-536.097
-530.595
-504.884
-465.28
-418.784
-371.803
-329.2
-294.325
-268.605
-251.682
-242.139
-238.215
-237.783
-238.445
-238.083
-235.52
-230.522
-223.482
-215.181
-206.371
-197.765
-190.191
-184.376
-180.608
-178.792
-178.607
-179.596
-181.356
-183.573
-185.901
-187.973
-189.539
-190.453
-190.654
-190.16
-188.974
-187.07
-184.442
-181.117
-177.139
-172.578
-167.497
-161.945
-155.988
-149.695
-143.145
-136.43
-129.61
-122.714
-115.761
-108.754
-101.692
-94.578
-87.405
-80.153
-72.806
-65.355
-57.794
-50.126
-42.353
-34.47
-26.475
-18.367
-10.155
-1.853
6.518
14.936
23.377
31.812
40.207
48.522
56.722
64.774
72.643
80.296
87.7
94.818
101.615
108.057
114.112
119.745
124.921
129.608
133.774
137.393
140.439
142.889
144.723
145.924
146.479
146.378
145.614
144.185
142.09
139.332
135.919
131.861
127.173
121.873
115.98
109.52
102.52
95.01
87.025
78.6
69.773
60.584
51.075
41.29
31.274
21.073
10.734
0.303
-10.171
-20.642
-31.061
-41.382
-51.562
-61.557
-71.325
-80.828
-90.028
-98.892
-107.388
-115.488
-123.167
-130.401
-137.173
-143.466
-149.269
-154.571
-159.367
-163.655
-167.436
-170.714
-173.496
-175.792
-177.614
-178.977
-179.9
-180.401
-180.502
-180.226
-179.597
-178.642
-177.387
-175.86
-174.088
-172.099
-169.922
-167.583
-165.112
-162.533
-159.873
-157.156
-154.407
-151.647
-148.899
-146.179
-143.507
-140.897
-138.362
-135.914
-133.561
-131.31
-129.166
-127.132
-125.209
-123.396
-121.693
-120.094
-118.594
-117.186
-115.862
-114.614
-113.431
-112.301
-111.212
-110.153
-109.112
-108.079
-107.042
-105.991
-104.914
-103.801
-102.644
-101.435
-100.163
-98.82
-97.401
-95.897
-94.307
-92.627
-90.858
-89.003
-87.068
-85.061
-82.991
-80.869
-78.704
-76.505
-74.283
-72.045
-69.799
-67.553
-65.316
-63.1
-60.924
-58.801
-56.746
-54.772
-52.888
-51.102
-49.426
-47.862
-46.406
-45.057
-43.82
-42.712
-41.77
-41.021
-40.476
-40.137
-40.003
-40.069
-40.332
-40.768
-41.323
-41.939
-42.562
-43.159
-43.734
-44.284
-44.783
-45.177
-45.391
-45.372
-45.131
-44.699
-44.079
-43.278
-42.29
-41.143
-39.995
-39.037
-38.424
-38.297
-38.725
-39.711
-41.392
-44.04
-47.715
-52.278
-57.321
-62.097
-66.067
-69.016
-70.505
-69.931
-67.133
-62.27
-56.336
-51.408
-49.108
-50.472
-56.671
-68.319
-84.879
-105.17
-126.339
-143.752
-153.152
-150.252
-130.459
-90.273
-30.31
44.981
130.071
217.329
306.775
405.908
512.615
620.424
710.808
748.33
714.959
605.298
425.313
210.119
-10.544
-210.235
-357.583
-446.986
-481
-470.105
-441.986
-410.792
-380.966
-352.829
-316.864
-271.605
-223.239
-177.226
-140.267
-115.485
-102.283
-99.428
-104.474
-114.149
-124.938
-134.37
-141.34
-145.013
-144.666
-140.167
-131.808
-120.846
-109.449
-98.906
-89.621
-81.875
-75.739
-71.185
-68.208
-66.326
-64.572
-62.361
-59.454
-55.744
-51.343
-46.286
-40.488
-33.989
-26.936
-19.432
-11.566
-3.373
5.189
14.103
23.306
32.723
42.253
51.829
61.426
71.023
80.611
90.186
99.73
109.24
118.722
128.181
137.612
147.007
156.344
165.61
174.801
183.92
192.972
201.955
210.853
219.651
228.33
236.87
245.248
253.438
261.407
269.128
276.575
283.724
290.554
297.038
303.152
308.868
314.163
319.011
323.388
327.269
330.63
333.452
335.715
337.404
338.505
339.006
338.899
338.178
336.839
334.882
332.31
329.127
325.341
320.963
316.009
310.495
304.441
297.871
290.809
283.284
275.326
266.97
258.248
249.199
239.86
230.271
220.473
210.51
200.422
190.254
180.049
169.851
159.703
149.647
139.724
129.974
120.434
111.142
102.13
93.43
85.072
77.08
69.478
62.286
55.521
49.197
43.323
37.907
32.951
28.457
24.421
20.838
17.699
14.992
12.704
10.817
9.313
8.17
7.365
6.873
6.667
6.721
7.005
7.49
8.146
8.945
9.855
10.849
11.895
12.967
14.037
15.077
16.063
16.971
17.781
18.471
19.025
19.428
19.668
19.736
19.624
19.325
18.838
18.161
17.295
16.243
15.01
13.603
12.031
10.305
8.438
6.442
4.333
2.127
-0.159
-2.508
-4.904
-7.33
-9.768
-12.201
-14.613
-16.987
-19.305
-21.552
-23.713
-25.774
-27.722
-29.546
-31.238
-32.793
-34.211
-35.492
-36.638
-37.652
-38.541
-39.311
-39.966
-40.514
-40.957
-41.3
-41.553
-41.726
-41.833
-41.889
-41.912
-41.921
-41.936
-41.971
-42.042
-42.159
-42.327
-42.555
-42.856
-43.244
-43.752
-44.407
-45.232
-46.248
-47.466
-48.878
-50.468
-52.209
-54.046
-55.941
-57.851
-59.735
-61.578
-63.355
-65.051
-66.66
-68.144
-69.464
-70.6
-71.533
-72.284
-72.933
-73.548
-74.228
-75.115
-76.3
-77.919
-80.132
-83.037
-86.761
-91.384
-96.888
-103.366
-110.976
-119.66
-129.224
-139.225
-148.865
-157.52
-164.702
-169.69
-171.936
-171.323
-168.064
-163.248
-158.561
-155.3
-154.748
-158.114
-165.661
-176.765
-189.786
-201.45
-208.063
-206.104
-191.139
-159.173
-107.884
-38.493
43.369
131.207
220.646
313.439
412.999
514.766
604.754
659.451
657.315
592.405
474.39
322.381
154.826
-14.266
-173.697
-308.946
-402.273
-444.368
-438.702
-401.798
-354.951
-311.832
-275.335
-240.768
-204.738
-168.035
-134.206
-108.215
-91.334
-81.599
-76.761
-73.76
-70.012
-64.608
-57.126
-47.583
-36.778
-25.535
-14.489
-4.5
3.559
9.337
12.752
13.928
13.381
11.57
8.834
5.597
2.229
-1.041
-4.01
-6.558
-8.683
-10.345
-11.518
-12.212
-12.383
-12.018
-11.123
-9.69
-7.795
-5.535
-2.982
-0.226
2.655
5.622
8.627
11.635
14.661
17.72
20.834
24.039
27.341
30.745
34.259
37.878
41.629
45.545
49.642
53.942
58.463
63.211
68.195
73.424
78.876
84.527
90.355
96.326
102.416
108.601
114.856
121.154
127.468
133.765
140.016
146.19
152.253
158.172
163.909
169.428
174.695
179.682
184.356
188.691
192.658
196.231
199.387
202.107
204.368
206.155
207.45
208.24
208.516
208.271
207.501
206.205
204.386
202.048
199.2
195.852
192.019
187.715
182.959
177.77
172.17
166.182
159.833
153.15
146.162
138.899
131.393
123.678
115.787
107.753
99.611
91.393
83.134
74.865
66.617
58.423
50.31
42.309
34.447
26.749
19.24
11.942
4.874
-1.945
-8.501
-14.781
-20.774
-26.472
-31.868
-36.958
-41.739
-46.211
-50.374
-54.233
-57.792
-61.059
-64.042
-66.752
-69.202
-71.404
-73.374
-75.125
-76.673
-78.036
-79.229
-80.27
-81.177
-81.968
-82.66
-83.274
-83.828
-84.34
-84.828
-85.309
-85.798
-86.311
-86.861
-87.46
-88.119
-88.849
-89.659
-90.557
-91.551
-92.647
-93.85
-95.163
-96.588
-98.124
-99.772
-101.527
-103.386
-105.342
-107.389
-109.522
-111.735
-114.021
-116.371
-118.777
-121.231
-123.723
-126.242
-128.778
-131.317
-133.847
-136.357
-138.836
-141.276
-143.668
-146.006
-148.288
-150.509
-152.668
-154.762
-156.787
-158.738
-160.61
-162.398
-164.095
-165.697
-167.202
-168.611
-169.928
-171.158
-172.303
-173.368
-174.353
-175.257
-176.082
-176.827
-177.484
-178.052
-178.538
-178.961
-179.357
-179.754
-180.165
-180.598
-181.063
-181.559
-182.091
-182.649
-183.188
-183.669
-184.061
-184.34
-184.523
-184.616
-184.596
-184.428
-184.045
-183.413
-182.563
-181.524
-180.293
-178.869
-177.223
-175.39
-173.545
-171.862
-170.501
-169.612
-169.23
-169.45
-170.527
-172.595
-175.625
-179.358
-183.129
-186.283
-188.486
-189.334
-188.317
-185.271
-180.294
-174.151
-168.682
-165.736
-166.647
-172.643
-184.627
-202.584
-225.546
-251.218
-275.375
-293.295
-300.687
-293.351
-267.595
-221.138
-153.529
-66.376
35.663
146.09
257.98
363.209
452.831
518.55
553.323
553.615
521.012
458.702
369.137
251.351
102.944
-71.664
-257.46
-427.74
-555.038
-624.78
-639.887
-619.826
-585.384
-548.037
-509.615
-464.013
-408.033
-344.92
-280.521
-222.266
-175.111
-140.592
-118.578
-107.591
-105.695
-110.6
-120.141
-132.216
-144.203
-154.02
-160.644
-163.656
-163.38
-160.769
-156.511
-151.463
-147.048
-144.161
-143.16
-144.199
-146.913
-150.787
-155.529
-160.665
-165.484
-169.538
-172.513
-174.168
-174.536
-173.65
-171.515
-168.259
-164.075
-159.153
-153.673
-147.766
-141.499
-134.918
-128.062
-120.946
-113.585
-105.974
-98.123
-90.071
-81.844
-73.47
-64.96
-56.298
-47.453
-38.375
-29.011
-19.315
-9.252
1.191
12.011
23.192
34.709
46.521
58.587
70.874
83.343
95.962
108.696
121.502
134.332
147.134
159.849
172.419
184.786
196.892
208.68
220.097
231.092
241.619
251.636
261.096
269.958
278.176
285.709
292.516
298.559
303.803
308.215
311.766
314.435
316.202
317.054
316.982
315.981
314.053
311.2
307.434
302.769
297.222
290.816
283.58
275.543
266.742
257.218
247.015
236.18
224.764
212.821
200.407
187.581
174.402
160.931
147.229
133.358
119.383
105.365
91.367
77.453
63.684
50.119
36.818
23.836
11.226
-0.963
-12.683
-23.892
-34.55
-44.622
-54.077
-62.885
-71.025
-78.477
-85.225
-91.259
-96.574
-101.168
-105.043
-108.206
-110.668
-112.444
-113.552
-114.011
-113.848
-113.088
-111.761
-109.899
-107.536
-104.709
-101.455
-97.813
-93.825
-89.533
-84.979
-80.205
-75.255
-70.17
-64.992
-59.763
-54.521
-49.304
-44.148
-39.088
-34.156
-29.383
-24.796
-20.421
-16.281
-12.397
-8.786
-5.462
-2.438
0.279
2.68
4.763
6.526
7.971
9.101
9.921
10.438
10.661
10.6
10.268
9.679
8.848
7.793
6.532
5.083
3.467
1.704
-0.184
-2.179
-4.262
-6.418
-8.632
-10.889
-13.174
-15.477
-17.784
-20.082
-22.356
-24.591
-26.772
-28.888
-30.932
-32.897
-34.782
-36.586
-38.313
-39.965
-41.543
-43.044
-44.463
-45.79
-47.023
-48.16
-49.206
-50.184
-51.118
-52.025
-52.928
-53.839
-54.75
-55.651
-56.515
-57.299
-57.977
-58.521
-58.907
-59.135
-59.198
-59.098
-58.845
-58.413
-57.767
-56.89
-55.768
-54.422
-52.943
-51.406
-49.912
-48.594
-47.536
-46.865
-46.712
-47.154
-48.317
-50.285
-53.076
-56.852
-61.807
-67.893
-75.001
-82.707
-90.122
-96.553
-101.376
-103.704
-103.071
-99.614
-93.55
-86.116
-79.797
-76.437
-77.734
-85.847
-99.278
-115.37
-134.213
-152.169
-168.484
-183.584
-186.341
-168.263
-121.388
-39.254
65.734
180.316
294.331
399.981
501.599
597.762
676.341
720.093
710.75
642.049
523.987
372.788
200.138
17.276
-166.879
-337.545
-466.127
-535.509
-543.528
-503.4
-447.036
-396.126
-357.693
-330.531
-304.2
-274.747
-245.224
-218.856
-199.493
-187.393
-179.934
-174.794
-169.704
-162.992
-154.155
-143.268
-130.83
-117.738
-104.825
-92.807
-82.407
-74.294
-68.839
-66.056
-65.689
-67.269
-70.258
-74.165
-78.541
-82.95
-87.065
-90.684
-93.661
-95.935
-97.481
-98.234
-98.124
-97.081
-94.995
-91.804
-87.529
-82.226
-76.036
-69.162
-61.764
-53.999
-46.009
-37.872
-29.647
-21.373
-13.038
-4.632
3.838
12.359
20.883
29.357
37.77
46.123
54.445
62.797
71.219
79.747
88.42
97.254
106.247
115.393
124.654
133.984
143.343
152.698
162.024
171.302
180.506
189.603
198.561
207.338
215.895
224.195
232.192
239.843
247.108
253.952
260.347
266.27
271.696
276.601
280.963
284.762
287.976
290.589
292.582
293.94
294.649
294.701
294.091
292.817
290.881
288.286
285.042
281.159
276.652
271.537
265.833
259.563
252.751
245.424
237.611
229.345
220.659
211.589
202.173
192.452
182.465
172.256
161.866
151.337
140.711
130.032
119.339
108.673
98.075
87.582
77.235
67.07
57.123
47.428
38.016
28.917
20.158
11.763
3.754
-3.849
-11.029
-17.774
-24.07
-29.909
-35.283
-40.189
-44.624
-48.59
-52.09
-55.129
-57.717
-59.863
-61.581
-62.885
-63.791
-64.315
-64.476
-64.293
-63.787
-62.977
-61.885
-60.532
-58.94
-57.132
-55.13
-52.956
-50.632
-48.179
-45.618
-42.968
-40.248
-37.476
-34.668
-31.838
-29.001
-26.168
-23.353
-20.565
-17.813
-15.104
-12.444
-9.838
-7.289
-4.795
-2.357
0.028
2.363
4.654
6.905
9.123
11.313
13.484
15.642
17.793
19.944
22.105
24.283
26.486
28.721
30.997
33.319
35.695
38.131
40.629
43.191
45.817
48.502
51.247
54.047
56.897
59.792
62.726
65.696
68.698
71.729
74.783
77.85
80.918
83.973
87
89.98
92.899
95.741
98.494
101.149
103.704
106.153
108.489
110.699
112.756
114.632
116.304
117.748
118.95
119.914
120.648
121.172
121.526
121.738
121.842
121.868
121.824
121.722
121.567
121.359
121.128
120.916
120.752
120.661
120.639
120.618
120.544
120.341
119.902
119.167
118.029
116.349
114.031
110.962
107.058
102.341
96.711
89.943
82.05
73.191
63.803
54.81
47
40.902
37.281
36.797
39.489
45.131
52.494
59.137
62.969
62.171
54.998
40.92
20.88
-3.564
-28.922
-49.444
-59.561
-53.291
-24.477
28.023
100.709
190.583
291.909
403.335
530.812
669.323
806.329
918.744
970.899
944.765
841.422
679.902
497.324
320.163
161.689
26.171
-92.018
-192.052
-267.575
-313.808
-325.97
-305.046
-257.437
-189.934
-110.375
-26.773
54.086
126.641
186.44
230.842
259.506
273.366
274.508
266.312
252.435
236.284
221.406
210.563
204.97
205.079
210.591
220.312
232.936
247.059
260.839
272.938
282.826
290.294
295.572
299.196
301.562
303.164
304.707
306.595
308.981
311.921
315.266
318.868
322.69
326.639
330.6
334.524
338.364
342.084
345.697
349.17
352.469
355.582
358.49
361.196
363.719
366.077
368.289
370.383
372.37
374.259
376.054
377.75
379.351
380.863
382.295
383.66
384.967
386.221
387.43
388.594
389.707
390.762
391.744
392.636
393.426
394.101
394.651
395.064
395.33
395.434
395.363
395.102
394.637
393.95
393.023
391.839
390.383
388.64
386.599
384.25
381.583
378.59
375.267
371.608
367.612
363.277
358.604
353.595
348.255
342.59
336.607
330.317
323.732
316.865
309.73
302.347
294.732
286.906
278.888
270.702
262.37
253.916
245.364
236.739
228.066
219.371
210.679
202.015
193.404
184.869
176.432
168.114
159.934
151.91
144.058
136.393
128.926
121.67
114.632
107.82
101.238
94.891
88.779
82.901
77.254
71.834
66.635
61.648
56.863
52.269
47.853
43.601
39.498
35.528
31.674
27.919
24.244
20.631
17.062
13.517
9.98
6.432
2.856
-0.762
-4.439
-8.187
-12.019
-15.947
-19.98
-24.129
-28.4
-32.8
-37.336
-42.011
-46.829
-51.791
-56.895
-62.142
-67.527
-73.047
-78.694
-84.461
-90.338
-96.317
-102.388
-108.537
-114.754
-121.023
-127.33
-133.66
-139.999
-146.329
-152.633
-158.894
-165.097
-171.226
-177.269
-183.211
-189.038
-194.738
-200.301
-205.714
-210.966
-216.047
-220.944
-225.645
-230.143
-234.428
-238.495
-242.337
-245.951
-249.334
-252.49
-255.421
-258.128
-260.612
-262.875
-264.917
-266.741
-268.349
-269.738
-270.909
-271.869
-272.623
-273.182
-273.552
-273.737
-273.74
-273.568
-273.223
-272.712
-272.033
-271.182
-270.162
-268.99
-267.692
-266.305
-264.852
-263.342
-261.792
-260.217
-258.629
-257.031
-255.397
-253.67
-251.809
-249.795
-247.626
-245.321
-242.87
-240.241
-237.401
-234.332
-231.056
-227.599
-223.965
-220.127
-216.066
-211.843
-207.62
-203.632
-200.098
-197.178
-194.947
-193.521
-193.154
-193.94
-195.799
-198.439
-201.248
-203.762
-205.839
-207.204
-207.404
-206.392
-204.358
-201.959
-200.804
-202.096
-206.37
-214.553
-227.356
-244.385
-264.731
-286.218
-304.92
-317.707
-321.951
-313.804
-289.985
-248.831
-191.275
-122.324
-48.553
25.997
102.819
184.239
266.373
337.579
375.822
361.409
290.687
172.934
28.921
-124.381
-282.833
-444.453
-604.483
-745.464
-843.468
-885.991
-875.724
-832.572
-779.73
-730.047
-686.792
-645.113
-601.747
-558.751
-520.038
-490.9
-474.156
-468.781
-472.286
-480.959
-490.716
-499.244
-505.508
-508.514
-507.509
-502.357
-493.383
-481.86
-469.903
-458.743
-448.741
-440.181
-433.095
-427.405
-423.038
-419.423
-415.596
-411.001
-405.412
-398.753
-391.148
-382.638
-373.169
-362.827
-351.779
-340.152
-328.046
-315.502
-302.514
-289.133
-275.459
-261.604
-247.669
-233.711
-219.761
-205.84
-191.962
-178.142
-164.39
-150.702
-137.084
-123.548
-110.111
-96.799
-83.635
-70.635
-57.808
-45.158
-32.691
-20.423
-8.373
3.437
14.979
26.227
37.149
47.713
57.888
67.647
76.968
85.829
94.209
102.087
109.443
116.258
122.513
128.188
133.267
137.732
141.57
144.771
147.326
149.231
150.483
151.08
151.026
150.327
148.989
147.024
144.444
141.264
137.501
133.178
128.317
122.943
117.084
110.769
104.03
96.901
89.416
81.611
73.524
65.192
56.655
47.952
39.124
30.212
21.255
12.294
3.37
-5.477
-14.208
-22.787
-31.176
-39.341
-47.249
-54.87
-62.173
-69.131
-75.721
-81.92
-87.708
-93.068
-97.985
-102.448
-106.449
-109.98
-113.039
-115.625
-117.74
-119.389
-120.579
-121.317
-121.617
-121.49
-120.954
-120.025
-118.723
-117.069
-115.084
-112.794
-110.222
-107.393
-104.335
-101.072
-97.632
-94.041
-90.327
-86.516
-82.637
-78.715
-74.777
-70.848
-66.954
-63.118
-59.362
-55.708
-52.174
-48.778
-45.535
-42.46
-39.565
-36.863
-34.362
-32.07
-29.994
-28.138
-26.505
-25.094
-23.904
-22.932
-22.173
-21.621
-21.268
-21.104
-21.121
-21.308
-21.653
-22.146
-22.773
-23.521
-24.375
-25.32
-26.34
-27.419
-28.542
-29.692
-30.853
-32.012
-33.158
-34.282
-35.375
-36.428
-37.434
-38.386
-39.278
-40.104
-40.853
-41.516
-42.086
-42.557
-42.93
-43.204
-43.383
-43.468
-43.466
-43.382
-43.222
-42.988
-42.679
-42.29
-41.823
-41.285
-40.686
-40.054
-39.411
-38.772
-38.151
-37.555
-36.981
-36.424
-35.861
-35.253
-34.577
-33.804
-32.917
-31.916
-30.784
-29.513
-28.097
-26.502
-24.703
-22.69
-20.464
-18.062
-15.557
-13.002
-10.477
-8.081
-5.903
-4.089
-2.775
-2.068
-2.108
-2.949
-4.681
-7.529
-11.528
-16.541
-22.279
-28.094
-33.353
-37.732
-40.673
-41.485
-40.116
-36.76
-32.174
-28.137
-25.984
-26.517
-30.916
-39.991
-53.252
-69.578
-86.533
-99.931
-106.255
-102.396
-84.636
-50.179
2.023
71.644
156.146
250.366
348.82
445.298
532.066
601.73
648.019
665.891
652.409
607.415
532.565
431.787
311.727
180.156
45.176
-84.902
-202.123
-299.845
-373.226
-419.86
-440.018
-435.701
-409.873
-366.791
-312.088
-251.921
-192.046
-137.134
-90.438
-54.037
-29.477
-17.13
-15.765
-23.047
-36.048
-51.765
-67.53
-81.312
-91.342
-96.533
-96.788
-92.708
-85.45
-76.479
-67.297
-58.95
-52.172
-47.348
-44.393
-43.001
-42.713
-42.911
-42.934
-42.386
-41.072
-38.919
-36.025
-32.471
-28.316
-23.671
-18.654
-13.324
-7.72
-1.863
4.243
10.551
17.005
23.574
30.222
36.941
43.735
50.606
57.565
64.63
71.807
79.095
86.489
93.973
101.534
109.163
116.853
124.603
132.407
140.255
148.138
156.039
163.935
171.798
179.596
187.288
194.842
202.226
209.408
216.359
223.05
229.448
235.526
241.255
246.604
251.543
256.042
260.072
263.605
266.62
269.095
271.012
272.355
273.109
273.264
272.811
271.746
270.065
267.768
264.857
261.34
257.226
252.529
247.268
241.462
235.137
228.319
221.039
213.331
205.23
196.772
187.997
178.946
169.661
160.185
150.563
140.839
131.059
121.268
111.513
101.837
92.283
82.894
73.711
64.773
56.117
47.78
39.796
32.194
25.005
18.255
11.967
6.16
0.852
-3.946
-8.224
-11.977
-15.203
-17.904
-20.084
-21.752
-22.918
-23.597
-23.805
-23.561
-22.888
-21.808
-20.349
-18.538
-16.405
-13.98
-11.295
-8.382
-5.276
-2.007
1.388
4.878
8.428
12.005
15.575
19.106
22.567
25.926
29.154
32.224
35.112
37.793
40.248
42.458
44.407
46.083
47.475
48.573
49.372
49.868
50.06
49.946
49.53
48.817
47.813
46.528
44.972
43.157
41.099
38.811
36.313
33.62
30.752
27.728
24.568
21.293
17.923
14.481
10.988
7.467
3.94
0.426
-3.054
-6.479
-9.832
-13.1
-16.27
-19.333
-22.281
-25.107
-27.806
-30.377
-32.815
-35.116
-37.276
-39.288
-41.151
-42.863
-44.427
-45.846
-47.132
-48.292
-49.337
-50.278
-51.122
-51.878
-52.552
-53.142
-53.653
-54.092
-54.474
-54.831
-55.193
-55.579
-56.007
-56.484
-57.003
-57.558
-58.131
-58.683
-59.179
-59.586
-59.874
-60.042
-60.094
-60.034
-59.854
-59.512
-58.974
-58.233
-57.312
-56.261
-55.131
-53.973
-52.849
-51.856
-51.124
-50.797
-51.004
-51.835
-53.368
-55.627
-58.703
-62.826
-68.019
-74.096
-80.689
-87.102
-92.716
-97.164
-99.837
-99.942
-97.33
-92.311
-85.747
-79.551
-75.315
-74.096
-77.474
-86.66
-101.256
-119.901
-140.056
-157.439
-168.033
-167.951
-152.056
-116.123
-60.382
11.479
94.922
185.117
283.095
392.577
508.28
615.757
691.271
709.937
661.46
554.01
410.518
255.908
107.388
-28.55
-154.435
-269.993
-370.241
-448.981
-499.127
-518.696
-511.182
-480.873
-433.337
-375.477
-313.6
-253.798
-201.402
-159.034
-127.751
-108.548
-101.104
-103.425
-112.867
-125.838
-138.766
-149.885
-158.104
-162.134
-161.542
-156.628
-148.115
-137.711
-127.317
-117.789
-109.593
-103.162
-98.468
-95.389
-93.711
-92.737
-91.658
-90.07
-87.78
-84.719
-81.003
-76.669
-71.708
-66.235
-60.398
-54.296
-47.994
-41.519
-34.864
-28.073
-21.233
-14.409
-7.655
-0.998
5.559
12.02
18.386
24.668
30.882
37.036
43.137
49.189
55.186
61.125
67.008
72.84
78.633
84.399
90.143
95.864
101.558
107.213
112.816
118.35
123.792
129.122
134.323
139.376
144.267
148.977
153.488
157.779
161.832
165.623
169.131
172.33
175.196
177.706
179.839
181.573
182.89
183.771
184.198
184.157
183.634
182.617
181.097
179.066
176.517
173.447
169.857
165.749
161.128
156.002
150.382
144.281
137.718
130.711
123.283
115.458
107.263
98.728
89.882
80.76
71.394
61.821
52.078
42.204
32.237
22.217
12.185
2.182
-7.753
-17.581
-27.26
-36.755
-46.027
-55.041
-63.764
-72.162
-80.206
-87.868
-95.12
-101.94
-108.308
-114.203
-119.613
-124.524
-128.928
-132.821
-136.198
-139.061
-141.414
-143.261
-144.612
-145.478
-145.871
-145.806
-145.3
-144.373
-143.046
-141.34
-139.282
-136.895
-134.208
-131.246
-128.039
-124.615
-121.003
-117.23
-113.326
-109.32
-105.241
-101.117
-96.975
-92.842
-88.745
-84.709
-80.756
-76.908
-73.183
-69.598
-66.167
-62.906
-59.824
-56.931
-54.236
-51.745
-49.465
-47.397
-45.544
-43.906
-42.481
-41.264
-40.251
-39.435
-38.807
-38.358
-38.08
-37.96
-37.99
-38.158
-38.454
-38.864
-39.375
-39.974
-40.648
-41.382
-42.164
-42.979
-43.815
-44.661
-45.511
-46.361
-47.206
-48.042
-48.867
-49.679
-50.479
-51.264
-52.03
-52.771
-53.483
-54.167
-54.824
-55.459
-56.078
-56.685
-57.288
-57.896
-58.513
-59.147
-59.793
-60.447
-61.108
-61.779
-62.47
-63.206
-64.007
-64.883
-65.847
-66.901
-68.04
-69.256
-70.522
-71.795
-73.044
-74.236
-75.345
-76.365
-77.274
-78.06
-78.71
-79.18
-79.434
-79.453
-79.225
-78.783
-78.187
-77.481
-76.73
-76.018
-75.425
-75.087
-75.143
-75.699
-76.869
-78.691
-81.235
-84.714
-89.215
-94.626
-100.625
-106.537
-111.686
-115.706
-118.146
-118.338
-115.993
-111.207
-104.728
-98.342
-93.768
-92.082
-94.289
-101.32
-113.338
-129.575
-147.879
-164.278
-174.632
-175.279
-162.542
-132.798
-82.813
-13.009
71.676
164.96
259.667
355.462
459.869
572.56
685.349
778.361
818.821
787.899
685.447
524.215
330.373
128.421
-66.396
-238.637
-370.379
-453.766
-487.347
-477.148
-444.484
-400.431
-347.705
-294.31
-238.875
-187.682
-152.723
-129.945
-117.923
-113.026
-106.142
-100.568
-97.482
-94.486
-93.473
-91.921
-87.524
-81.623
-74.194
-65.474
-57.287
-50.566
-45.501
-42.48
-41.22
-41.071
-41.918
-43.689
-45.819
-47.844
-49.468
-50.347
-50.475
-49.961
-48.733
-46.747
-44.036
-40.628
-36.601
-32.065
-27.05
-21.581
-15.717
-9.514
-3.054
3.573
10.317
17.151
24.061
31.046
38.106
45.243
52.466
59.795
67.246
74.832
82.557
90.42
98.421
106.56
114.846
123.281
131.86
140.571
149.398
158.319
167.312
176.35
185.401
194.43
203.403
212.287
221.049
229.659
238.082
246.284
254.228
261.881
269.207
276.17
282.735
288.867
294.534
299.705
304.354
308.454
311.982
314.919
317.248
318.953
320.023
320.45
320.228
319.355
317.831
315.661
312.853
309.417
305.368
300.724
295.504
289.733
283.438
276.648
269.396
261.714
253.641
245.214
236.473
227.46
218.218
208.791
199.222
189.556
179.839
170.112
160.42
150.803
141.302
131.956
122.801
113.872
105.202
96.821
88.759
81.041
73.691
66.731
60.177
54.047
48.35
43.098
38.296
33.948
30.054
26.611
23.616
21.061
18.936
17.228
15.925
15.008
14.46
14.262
14.391
14.825
15.542
16.518
17.728
19.149
20.756
22.525
24.432
26.453
28.565
30.743
32.959
35.193
37.429
39.65
41.84
43.98
46.047
48.029
49.93
51.731
53.39
54.874
56.146
57.201
58.084
58.8
59.296
59.609
59.855
60.125
60.518
61.055
61.599
62.114
62.761
63.396
63.472
62.876
61.784
60.134
58.523
55.883
48.78
37.927
26.514
19.724
27.362
48.945
74.622
94.613
95.019
74.818
47.185
22.315
11.17
15.784
26.319
36.7
42.826
43.4
42.43
41.757
41.234
40.994
40.427
39.363
38.337
37.508
36.781
36.174
35.71
35.364
35.104
34.854
34.499
33.994
33.366
32.618
31.75
30.777
29.72
28.629
27.548
26.513
25.545
24.647
23.828
23.089
22.432
21.882
21.466
21.191
21.065
21.063
21.103
21.118
21.006
20.63
19.903
18.702
16.883
14.354
11.008
6.771
1.652
-4.439
-11.688
-20.083
-29.451
-39.383
-49.109
-57.979
-65.528
-71.073
-73.912
-73.804
-70.914
-66.197
-61.511
-58.449
-58.208
-62.065
-70.827
-84.18
-100.872
-118.166
-131.899
-137.909
-132.032
-110.044
-68.707
-8.572
66.362
151.147
240.835
335.981
439.622
547.316
645.898
712.002
721.331
664.232
548.873
399.089
240.867
90.699
-45.633
-171.14
-286.538
-387.111
-466.631
-518.571
-541.096
-537.057
-510.237
-465.588
-408.936
-346.152
-283.082
-224.587
-173.889
-132.956
-103.198
-85.029
-77.441
-78.211
-84.384
-93.049
-101.738
-108.696
-112.566
-112.497
-108.483
-101.29
-92.182
-82.582
-73.869
-66.825
-61.812
-58.99
-58.155
-58.905
-60.75
-63.032
-65.04
-66.384
-66.859
-66.348
-64.863
-62.335
-58.691
-54.009
-48.425
-42.099
-35.224
-27.933
-20.313
-12.51
-4.634
3.236
11.026
18.735
26.383
33.959
41.443
48.79
55.944
62.885
69.615
76.149
82.534
88.804
94.986
101.128
107.256
113.382
119.511
125.619
131.664
137.619
143.456
149.152
154.694
160.061
165.229
170.173
174.864
179.272
183.368
187.117
190.486
193.445
195.965
198.025
199.608
200.697
201.275
201.326
200.836
199.791
198.179
195.989
193.211
189.839
185.869
181.301
176.141
170.394
164.071
157.185
149.753
141.793
133.328
124.383
114.985
105.164
94.952
84.381
73.49
62.314
50.892
39.266
27.476
15.564
3.573
-8.455
-20.477
-32.452
-44.338
-56.095
-67.684
-79.067
-90.208
-101.069
-111.619
-121.826
-131.66
-141.096
-150.11
-158.681
-166.791
-174.428
-181.578
-188.235
-194.392
-200.048
-205.203
-209.86
-214.026
-217.71
-220.925
-223.683
-226.003
-227.901
-229.398
-230.516
-231.278
-231.707
-231.828
-231.667
-231.249
-230.601
-229.751
-228.724
-227.548
-226.25
-224.856
-223.391
-221.88
-220.346
-218.811
-217.295
-215.816
-214.391
-213.036
-211.766
-210.593
-209.526
-208.577
-207.75
-207.052
-206.486
-206.051
-205.748
-205.572
-205.519
-205.584
-205.758
-206.032
-206.399
-206.848
-207.37
-207.952
-208.585
-209.254
-209.949
-210.655
-211.36
-212.052
-212.718
-213.346
-213.925
-214.448
-214.907
-215.297
-215.615
-215.856
-216.016
-216.096
-216.092
-216.003
-215.825
-215.555
-215.193
-214.74
-214.2
-213.576
-212.876
-212.112
-211.297
-210.445
-209.568
-208.677
-207.778
-206.874
-205.967
-205.064
-204.175
-203.318
-202.506
-201.75
-201.063
-200.453
-199.92
-199.449
-199.008
-198.55
-198.031
-197.414
-196.673
-195.79
-194.762
-193.596
-192.291
-190.836
-189.235
-187.485
-185.592
-183.58
-181.47
-179.306
-177.187
-175.242
-173.614
-172.429
-171.764
-171.675
-172.21
-173.395
-175.28
-177.904
-181.228
-185.236
-189.941
-195.214
-200.829
-206.369
-211.101
-214.248
-215.173
-213.391
-208.539
-200.66
-190.298
-178.463
-166.81
-157.182
-151.051
-149.129
-151.577
-157.56
-164.943
-170.998
-171.931
-163.403
-141.753
-104.111
-49.031
22.469
107.481
199.885
291.888
377.344
447.902
499.575
530.068
530.591
499.651
431.978
320.972
176.054
2.987
-181.696
-349.588
-485.774
-573.164
-607.489
-603.83
-571.652
-523.757
-469.512
-406.892
-338.729
-269.858
-204.487
-150.105
-111.601
-89.605
-82.499
-86.708
-97.518
-110.166
-121.698
-130.15
-133.551
-131.274
-123.662
-111.498
-96.95
-82.756
-70.317
-60.396
-53.571
-49.587
-48.138
-48.951
-51.079
-53.446
-55.468
-56.767
-57.189
-56.877
-55.82
-53.934
-51.246
-47.731
-43.395
-38.295
-32.467
-26.001
-19.01
-11.601
-3.911
3.939
11.881
19.868
27.901
36.028
44.261
52.598
61.024
69.478
77.927
86.375
94.83
103.337
111.938
120.66
129.543
138.631
147.945
157.489
167.246
177.167
187.218
197.369
207.592
217.87
228.182
238.495
248.78
259.002
269.123
279.108
288.915
298.497
307.811
316.816
325.478
333.768
341.657
349.112
356.106
362.61
368.598
374.044
378.926
383.219
386.902
389.96
392.379
394.151
395.27
395.732
395.54
394.697
393.211
391.093
388.359
385.026
381.114
376.646
371.648
366.147
360.174
353.761
346.942
339.753
332.232
324.416
316.346
308.062
299.604
291.012
282.329
273.592
264.842
256.117
247.456
238.895
230.469
222.213
214.157
206.331
198.761
191.472
184.483
177.814
171.48
165.494
159.865
154.603
149.711
145.192
141.045
137.269
133.858
130.806
128.104
125.741
123.704
121.98
120.553
119.407
118.523
117.882
117.465
117.249
117.213
117.333
117.587
117.951
118.402
118.916
119.472
120.047
120.623
121.178
121.695
122.157
122.546
122.848
123.048
123.132
123.09
122.912
122.589
122.113
121.479
120.683
119.722
118.595
117.3
115.836
114.205
112.407
110.445
108.323
106.044
103.615
101.043
98.336
95.503
92.553
89.499
86.349
83.112
79.794
76.402
72.94
69.416
65.835
62.201
58.521
54.803
51.058
47.299
43.535
39.777
36.032
32.305
28.597
24.911
21.248
17.612
14.008
10.441
6.919
3.456
0.063
-3.251
-6.488
-9.669
-12.815
-15.934
-19.032
-22.105
-25.138
-28.116
-31.014
-33.782
-36.376
-38.747
-40.859
-42.704
-44.282
-45.596
-46.63
-47.336
-47.671
-47.625
-47.22
-46.509
-45.544
-44.377
-43.078
-41.754
-40.555
-39.655
-39.205
-39.326
-40.101
-41.54
-43.745
-46.946
-51.184
-56.314
-61.92
-67.232
-71.612
-74.698
-75.958
-74.746
-70.86
-64.462
-56.557
-49.206
-44.139
-42.542
-45.57
-53.771
-66.615
-82.848
-99.432
-111.58
-115.053
-105.811
-79.711
-34.104
31.992
116.241
211.775
310.857
407.266
500.342
592.531
679.47
751.193
788.002
766.702
681.986
541.321
365.686
189.211
32.686
-92.279
-179.635
-238.775
-274.906
-290.238
-290.04
-271.781
-236.397
-189.435
-135.482
-82.967
-37.951
-2.082
23.76
40.801
51.154
56.396
59.025
61.809
66.162
72.635
81.108
90.828
101.077
111.242
120.432
127.731
132.76
135.508
136.247
135.465
133.551
130.822
127.648
124.399
121.334
118.602
116.263
114.302
112.728
111.568
110.827
110.495
110.535
110.902
111.549
112.441
113.528
114.751
116.051
117.361
118.643
119.888
121.096
122.283
123.467
124.668
125.912
127.237
128.675
130.252
131.99
133.903
136.009
138.326
140.872
143.661
146.701
149.989
153.521
157.288
161.275
165.465
169.834
174.352
178.993
183.728
188.532
193.374
198.226
203.054
207.825
212.507
217.064
221.46
225.658
229.62
233.311
236.695
239.741
242.418
244.696
246.55
247.956
248.896
249.349
249.304
248.745
247.666
246.059
243.921
241.253
238.059
234.344
230.12
225.398
220.196
214.532
208.428
201.908
194.997
187.726
180.123
172.221
164.055
155.66
147.072
138.331
129.475
120.544
111.577
102.613
93.69
84.842
76.107
67.515
59.099
50.885
42.901
35.17
27.714
20.55
13.696
7.164
0.965
-4.896
-10.412
-15.584
-20.413
-24.904
-29.063
-32.902
-36.433
-39.67
-42.632
-45.337
-47.808
-50.07
-52.146
-54.066
-55.857
-57.55
-59.177
-60.77
-62.359
-63.976
-65.654
-67.422
-69.31
-71.346
-73.556
-75.964
-78.595
-81.471
-84.61
-88.03
-91.746
-95.771
-100.115
-104.788
-109.793
-115.132
-120.804
-126.806
-133.131
-139.769
-146.71
-153.937
-161.434
-169.181
-177.158
-185.341
-193.704
-202.219
-210.855
-219.581
-228.367
-237.18
-245.984
-254.747
-263.434
-272.016
-280.464
-288.75
-296.846
-304.725
-312.36
-319.729
-326.808
-333.573
-339.994
-346.05
-351.721
-356.992
-361.854
-366.297
-370.315
-373.905
-377.07
-379.813
-382.137
-384.04
-385.513
-386.557
-387.183
-387.407
-387.259
-386.765
-385.943
-384.818
-383.412
-381.737
-379.793
-377.569
-375.031
-372.162
-368.962
-365.435
-361.605
-357.484
-353.069
-348.37
-343.388
-338.125
-332.597
-326.807
-320.769
-314.562
-308.288
-302.068
-296.06
-290.354
-285.02
-280.182
-275.931
-272.368
-269.627
-267.747
-266.801
-266.979
-268.298
-270.632
-273.688
-276.759
-279.13
-280.342
-279.727
-276.599
-270.891
-262.787
-253.133
-243.83
-236.403
-231.827
-231.358
-235.834
-244.891
-257.568
-271.426
-282.066
-285.804
-279.674
-260.084
-224.145
-170.356
-97.769
-9.782
85.412
181.38
271.378
353.555
433.083
507.501
571.676
613.558
608.931
547.077
424.128
242.85
30.564
-187.348
-383.802
-525.115
-603.119
-622.295
-597.248
-557.686
-518.683
-483.232
-449.168
-407.094
-355.812
-300.48
-246.667
-201.45
-167.928
-146.023
-135.241
-133.333
-137.607
-146.388
-157.601
-168.94
-178.908
-185.951
-189.005
-188.209
-184.237
-177.774
-169.887
-161.89
-154.575
-148.645
-144.552
-142.154
-141.16
-141.24
-141.864
-142.416
-142.557
-142.076
-140.869
-139.046
-136.686
-133.852
-130.677
-127.295
-123.783
-120.195
-116.557
-112.859
-109.135
-105.428
-101.756
-98.141
-94.58
-91.057
-87.562
-84.08
-80.588
-77.067
-73.504
-69.888
-66.221
-62.505
-58.737
-54.912
-51.025
-47.071
-43.052
-38.971
-34.833
-30.65
-26.44
-22.223
-18.027
-13.873
-9.783
-5.778
-1.881
1.887
5.5
8.935
12.166
15.167
17.91
20.367
22.512
24.318
25.764
26.829
27.495
27.744
27.564
26.943
25.872
24.346
22.362
19.919
17.021
13.673
9.886
5.673
1.049
-3.967
-9.353
-15.083
-21.132
-27.469
-34.062
-40.878
-47.879
-55.028
-62.285
-69.609
-76.958
-84.289
-91.56
-98.728
-105.749
-112.582
-119.188
-125.525
-131.557
-137.248
-142.565
-147.475
-151.952
-155.97
-159.506
-162.542
-165.063
-167.058
-168.518
-169.44
-169.822
-169.666
-168.979
-167.77
-166.052
-163.84
-161.153
-158.015
-154.45
-150.486
-146.155
-141.487
-136.517
-131.281
-125.815
-120.156
-114.344
-108.418
-102.416
-96.38
-90.349
-84.364
-78.464
-72.687
-67.07
-61.648
-56.456
-51.524
-46.881
-42.554
-38.567
-34.944
-31.705
-28.868
-26.449
-24.459
-22.908
-21.803
-21.149
-20.945
-21.188
-21.872
-22.99
-24.533
-26.49
-28.85
-31.598
-34.717
-38.19
-41.999
-46.123
-50.538
-55.218
-60.136
-65.265
-70.578
-76.047
-81.645
-87.345
-93.121
-98.951
-104.812
-110.68
-116.528
-122.33
-128.061
-133.694
-139.204
-144.561
-149.737
-154.713
-159.473
-164.003
-168.288
-172.314
-176.063
-179.518
-182.667
-185.493
-187.976
-190.091
-191.821
-193.161
-194.121
-194.728
-194.994
-194.918
-194.497
-193.736
-192.637
-191.196
-189.387
-187.154
-184.448
-181.256
-177.592
-173.483
-168.943
-163.957
-158.496
-152.529
-146.073
-139.162
-131.806
-124.003
-115.744
-107.05
-98.043
-88.934
-79.91
-71.107
-62.625
-54.495
-46.835
-39.872
-33.665
-28.105
-22.891
-17.47
-11.41
-4.557
3.409
12.99
24.271
37.115
50.849
63.789
74.556
82.391
86.23
85.216
79.62
70.192
58.83
49.511
45.753
50.192
66.495
98.012
146.379
212.42
293.051
380.241
466.961
548.708
624.927
698.326
767.366
822.494
845.511
818.079
731.358
587.905
405.923
210.34
24.475
-127.797
-232.354
-285.81
-292.959
-270.379
-233.565
-190.877
-145.671
-94.781
-37.533
21.32
76.172
120.943
152.17
169.559
174.578
170.205
160.041
147.933
136.564
127.159
120.75
118.257
119.792
124.914
132.289
139.721
145.959
150.679
153.633
154.765
154.133
151.807
148.354
144.755
141.57
139.008
137.137
135.833
135.079
134.952
135.39
136.243
137.398
138.776
140.362
142.196
144.268
146.522
148.891
151.317
153.785
156.305
158.894
161.572
164.354
167.251
170.292
173.495
176.873
180.435
184.177
188.094
192.192
196.479
200.963
205.652
210.539
215.612
220.855
226.246
231.76
237.369
243.038
248.736
254.434
260.099
265.704
271.218
276.607
281.839
286.88
291.697
296.254
300.518
304.457
308.039
311.237
314.025
316.38
318.281
319.71
320.652
321.096
321.032
320.456
319.363
317.754
315.635
313.011
309.895
306.299
302.241
297.741
292.822
287.51
281.833
275.82
269.505
262.921
256.103
249.089
241.915
234.618
227.237
219.81
212.375
204.969
197.628
190.389
183.284
176.347
169.608
163.095
156.834
150.849
145.16
139.785
134.74
130.035
125.681
121.685
118.049
114.774
111.86
109.302
107.092
105.222
103.679
102.451
101.521
100.873
100.488
100.347
100.431
100.719
101.192
101.828
102.607
103.508
104.511
105.596
106.742
107.93
109.142
110.361
111.572
112.761
113.915
115.024
116.08
117.077
118.009
118.872
119.665
120.386
121.036
121.618
122.137
122.599
123.009
123.376
123.711
124.023
124.324
124.622
124.926
125.245
125.587
125.962
126.377
126.839
127.355
127.933
128.581
129.308
130.12
131.019
132.009
133.091
134.264
135.523
136.861
138.269
139.739
141.262
142.831
144.44
146.079
147.739
149.415
151.099
152.779
154.443
156.074
157.657
159.183
160.641
162.026
163.333
164.551
165.676
166.711
167.651
168.483
169.181
169.704
170.025
170.134
170.022
169.683
169.114
168.312
167.306
166.153
164.903
163.605
162.28
160.921
159.549
158.207
156.954
155.857
154.932
154.16
153.553
153.147
152.989
153.087
153.325
153.502
153.428
152.914
151.877
150.221
147.69
144.181
139.749
134.63
129.461
124.845
121.032
118.429
117.569
118.406
120.687
123.622
125.248
124.031
119.098
109.097
93.061
71.427
45.285
17.288
-7.625
-25.353
-32.726
-25.144
1.416
48.491
116.683
202.08
295.205
390.519
484.144
571.643
653.507
721.538
761.451
764.28
718.134
622.955
489.161
323.591
143.81
-31.233
-183.773
-290.85
-344.142
-350.607
-326.26
-292.352
-261.113
-233.055
-203.11
-168.038
-130.036
-94.513
-67.17
-49.834
-40.889
-38.098
-38.904
-41.039
-42.764
-42.908
-41.069
-37.547
-33.064
-28.324
-23.951
-20.662
-19.17
-19.729
-22.177
-26.134
-31.023
-36.386
-41.918
-47.267
-52.124
-56.289
-59.627
-62.11
-63.794
-64.662
-64.654
-63.718
-61.777
-58.864
-55.125
-50.669
-45.612
-40.063
-34.096
-27.816
-21.332
-14.692
-7.911
-0.988
6.1
13.339
20.688
28.119
35.586
43.078
50.621
58.222
65.88
73.598
81.369
89.196
97.09
105.028
112.966
120.858
128.653
136.309
143.795
151.07
158.093
164.823
171.214
177.225
182.82
187.958
192.596
196.694
200.21
203.109
205.363
206.945
207.829
207.993
207.416
206.081
203.977
201.094
197.423
192.96
187.706
181.664
174.845
167.261
158.929
149.869
140.108
129.675
118.605
106.933
94.701
81.952
68.734
55.097
41.091
26.772
12.196
-2.582
-17.501
-32.503
-47.528
-62.516
-77.409
-92.148
-106.675
-120.932
-134.866
-148.423
-161.552
-174.205
-186.335
-197.9
-208.859
-219.176
-228.819
-237.76
-245.974
-253.441
-260.145
-266.076
-271.225
-275.593
-279.18
-281.994
-284.045
-285.351
-285.93
-285.808
-285.01
-283.566
-281.51
-278.876
-275.703
-272.031
-267.901
-263.357
-258.444
-253.208
-247.698
-241.961
-236.047
-230.002
-223.876
-217.716
-211.568
-205.477
-199.486
-193.638
-187.973
-182.53
-177.347
-172.458
-167.893
-163.681
-159.846
-156.412
-153.396
-150.812
-148.671
-146.98
-145.747
-144.974
-144.663
-144.814
-145.422
-146.481
-147.982
-149.917
-152.272
-155.029
-158.172
-161.679
-165.532
-169.708
-174.186
-178.944
-183.961
-189.217
-194.692
-200.366
-206.214
-212.213
-218.337
-224.561
-230.859
-237.201
-243.559
-249.908
-256.23
-262.512
-268.74
-274.899
-280.973
-286.944
-292.798
-298.523
-304.098
-309.5
-314.707
-319.708
-324.51
-329.143
-333.625
-337.966
-342.159
-346.196
-350.073
-353.788
-357.313
-360.595
-363.579
-366.215
-368.493
-370.441
-372.078
-373.4
-374.377
-374.946
-375.082
-374.813
-374.172
-373.171
-371.826
-370.142
-368.174
-366.105
-364.132
-362.43
-361.16
-360.392
-360.155
-360.602
-361.937
-364.204
-367.28
-370.717
-373.783
-375.916
-376.712
-375.676
-372.437
-366.98
-359.626
-351.626
-345.027
-341.622
-343.045
-350.607
-364.366
-383.269
-405.387
-426.926
-442.978
-448.831
-439.277
-409.955
-359.181
-287.244
-196.694
-93.157
16.487
124.211
219.697
293.538
338.396
350.041
329.49
277.808
195.879
84.979
-54.929
-213.463
-371.726
-510.71
-609.455
-662.3
-679.416
-670.842
-649.799
-621.774
-582.113
-531.179
-471.013
-405.921
-344.173
-290.374
-246.756
-215.149
-195.017
-185.058
-183.866
-188.904
-197.879
-208.859
-219.193
-226.642
-230.038
-228.79
-223.115
-213.944
-202.018
-188.274
-174.268
-161.132
-149.461
-139.581
-131.283
-124.176
-118.032
-112.447
-106.82
-100.797
-94.195
-86.956
-79.234
-71.151
-62.755
-54.147
-45.428
-36.666
-27.919
-19.213
-10.548
-1.932
6.617
15.087
23.463
31.748
39.952
48.089
56.177
64.226
72.242
80.231
88.185
96.103
103.986
111.835
119.655
127.451
135.22
142.961
150.673
158.35
165.98
173.548
181.03
188.408
195.666
202.787
209.755
216.554
223.164
229.566
235.744
241.675
247.339
252.714
257.775
262.501
266.872
270.87
274.476
277.674
280.449
282.788
284.677
286.108
287.07
287.556
287.561
287.081
286.115
284.666
282.736
280.333
277.466
274.145
270.386
266.204
261.619
256.65
251.319
245.651
239.67
233.405
226.881
220.129
213.177
206.058
198.801
191.438
184.001
176.52
169.024
161.545
154.11
146.746
139.48
132.337
125.338
118.506
111.86
105.418
99.195
93.205
87.457
81.961
76.721
71.742
67.024
62.566
58.363
54.41
50.699
47.221
43.965
40.918
38.068
35.4
32.898
30.545
28.324
26.218
24.207
22.274
20.399
18.566
16.756
14.954
13.144
11.311
9.442
7.524
5.546
3.496
1.366
-0.852
-3.166
-5.577
-8.091
-10.707
-13.424
-16.241
-19.152
-22.153
-25.237
-28.399
-31.633
-34.931
-38.286
-41.69
-45.134
-48.612
-52.112
-55.626
-59.143
-62.654
-66.149
-69.622
-73.065
-76.476
-79.852
-83.194
-86.502
-89.777
-93.022
-96.236
-99.419
-102.57
-105.686
-108.767
-111.815
-114.834
-117.831
-120.814
-123.793
-126.776
-129.772
-132.783
-135.814
-138.863
-141.926
-145.004
-148.098
-151.219
-154.394
-157.648
-160.994
-164.442
-167.989
-171.629
-175.35
-179.128
-182.924
-186.693
-190.389
-193.98
-197.445
-200.769
-203.937
-206.913
-209.633
-212.044
-214.129
-215.905
-217.405
-218.659
-219.687
-220.518
-221.253
-222.046
-223.053
-224.414
-226.261
-228.654
-231.701
-235.647
-240.594
-246.453
-252.938
-259.417
-265.273
-270.173
-273.619
-274.918
-273.906
-270.758
-266.244
-262.165
-259.968
-260.492
-264.98
-274.497
-288.804
-306.86
-326.114
-342.174
-351.57
-351.148
-336.7
-304.499
-251.863
-179.733
-93.959
-1.201
92.224
185.995
285.594
388.563
488.658
569.919
602.971
571.429
466.785
293.544
82.763
-133.752
-322.744
-456.774
-533.147
-561.544
-562.348
-556.017
-549.527
-540.451
-519.581
-481.526
-429.2
-369.582
-311.41
-259.772
-216.149
-181.774
-157.119
-141.93
-135.385
-135.59
-140.723
-149.552
-160.55
-171.501
-180.252
-185.536
-186.985
-184.984
-180.129
-172.798
-163.681
-154.044
-145.01
-137.197
-130.803
-125.613
-121.291
-117.657
-114.403
-110.99
-107.043
-102.381
-96.948
-90.881
-84.318
-77.306
-69.924
-62.293
-54.488
-46.576
-38.609
-30.568
-22.446
-14.254
-5.991
2.338
10.737
19.229
27.837
36.574
45.45
54.469
63.626
72.925
82.362
91.939
101.659
111.522
121.524
131.66
141.924
152.308
162.801
173.382
184.027
194.71
205.41
216.103
226.769
237.384
247.924
258.363
268.677
278.839
288.823
298.597
308.132
317.397
326.363
335.005
343.295
351.208
358.722
365.814
372.462
378.648
384.355
389.565
394.265
398.441
402.083
405.184
407.738
409.743
411.198
412.105
412.472
412.305
411.616
410.417
408.723
406.552
403.921
400.853
397.37
393.496
389.257
384.68
379.793
374.625
369.205
363.565
357.734
351.742
345.62
339.397
333.102
326.765
320.414
314.074
307.773
301.535
295.384
289.341
283.427
277.66
272.056
266.63
261.393
256.356
251.526
246.91
242.51
238.329
234.369
230.629
227.107
223.799
220.701
217.807
215.111
212.603
210.276
208.118
206.119
204.268
202.555
200.967
199.493
198.123
196.844
195.648
194.525
193.465
192.458
191.495
190.569
189.673
188.801
187.951
187.118
186.3
185.5
184.718
183.957
183.221
182.511
181.832
181.186
180.579
180.015
179.5
179.039
178.639
178.307
178.054
177.887
177.816
177.847
177.988
178.244
178.621
179.119
179.74
180.481
181.345
182.332
183.443
184.678
186.04
187.53
189.151
190.907
192.791
194.795
196.908
199.119
201.42
203.806
206.268
208.796
211.385
214.032
216.741
219.507
222.312
225.118
227.879
230.556
233.134
235.597
237.928
240.111
242.143
244.044
245.871
247.67
249.461
251.233
252.953
254.611
256.225
257.836
259.489
261.182
262.879
264.573
266.273
267.988
269.705
271.292
272.514
273.162
273.061
272.104
270.269
267.413
263.317
257.941
251.413
244.125
236.748
229.752
223.428
218.265
214.682
212.727
212.167
211.917
210.232
205.773
197.243
183.325
163.675
138.96
110.905
82.956
59.152
43.295
40.17
54.451
89.017
143.075
211.475
287.895
367.883
452.906
545.612
640.841
724.656
773.958
767.827
699.932
578.287
420.451
243.295
59.984
-117.639
-274.599
-392.469
-460.303
-480.076
-466.561
-438.695
-407.763
-375.281
-335.889
-286.368
-229.78
-172.384
-121.688
-82.53
-56.301
-42.76
-40.467
-47.438
-61.188
-79.269
-99.271
-118.36
-134.268
-145.745
-152.137
-153.639
-151.18
-145.563
-137.836
-129.575
-121.891
-115.314
-110.101
-106.055
-102.787
-100.075
-97.543
-94.584
-90.852
-86.208
-80.624
-74.27
-67.293
-59.736
-51.692
-43.297
-34.637
-25.795
-16.836
-7.744
1.477
10.808
20.237
29.742
39.315
48.968
58.714
68.55
78.464
88.436
98.44
108.459
118.474
128.465
138.419
148.315
158.136
167.863
177.478
186.962
196.292
205.439
214.371
223.055
231.465
239.576
247.362
254.8
261.864
268.531
274.778
280.58
285.914
290.754
295.075
298.855
302.074
304.714
306.758
308.196
309.015
309.209
308.77
307.696
305.985
303.636
300.651
297.035
292.791
287.927
282.453
276.379
269.718
262.485
254.694
246.366
237.52
228.177
218.359
208.092
197.401
186.312
174.855
163.058
150.951
138.565
125.933
113.085
100.053
86.868
73.562
60.165
46.705
33.212
19.713
6.236
-7.195
-20.552
-33.811
-46.949
-59.942
-72.767
-85.405
-97.834
-110.034
-121.988
-133.678
-145.089
-156.205
-167.013
-177.499
-187.652
-197.461
-206.918
-216.015
-224.744
-233.101
-241.08
-248.678
-255.892
-262.719
-269.157
-275.203
-280.857
-286.118
-290.985
-295.459
-299.54
-303.23
-306.531
-309.447
-311.981
-314.137
-315.921
-317.336
-318.391
-319.09
-319.442
-319.455
-319.136
-318.496
-317.545
-316.296
-314.761
-312.953
-310.885
-308.571
-306.026
-303.265
-300.306
-297.163
-293.856
-290.402
-286.824
-283.146
-279.392
-275.584
-271.748
-267.909
-264.092
-260.321
-256.617
-253
-249.489
-246.105
-242.868
-239.802
-236.925
-234.258
-231.827
-229.657
-227.768
-226.182
-224.908
-223.949
-223.315
-223.01
-223.042
-223.426
-224.167
-225.261
-226.718
-228.535
-230.702
-233.202
-235.985
-238.987
-242.163
-245.463
-248.844
-252.287
-255.748
-259.203
-262.644
-266.044
-269.388
-272.681
-275.891
-279.007
-282.057
-285.067
-288.122
-291.345
-294.803
-298.566
-302.678
-307.155
-312.056
-317.405
-323.195
-329.431
-336.066
-343.079
-350.567
-358.434
-366.348
-373.827
-380.058
-384.234
-385.841
-384.268
-378.988
-370.06
-358.08
-344.432
-331.295
-320.641
-313.986
-312.529
-316.584
-325.419
-336.973
-347.452
-352.341
-346.797
-325.942
-286.668
-227.351
-149.497
-59.454
37.504
136.891
234.88
331.641
418.486
480.74
506.575
481.814
407.071
293.884
150.177
-7.517
-163.552
-303.131
-404.703
-457.552
-465.51
-442.583
-407.204
-371.239
-335.221
-292.407
-240.069
-181.004
-120.432
-65.963
-21.787
11.667
33.531
44.105
45.302
39.16
27.85
13.949
-0.43
-13.827
-24.466
-31.172
-33.939
-33.267
-29.962
-25.243
-20.328
-15.98
-12.903
-11.49
-11.685
-13.338
-16.145
-19.596
-23.128
-26.403
-29.224
-31.534
-33.413
-34.895
-36.01
-36.834
-37.465
-37.968
-38.372
-38.679
-38.833
-38.791
-38.535
-38.046
-37.305
-36.289
-34.949
-33.24
-31.138
-28.627
-25.696
-22.34
-18.548
-14.31
-9.627
-4.501
1.065
7.063
13.486
20.322
27.556
35.166
43.123
51.39
59.932
68.714
77.7
86.854
96.136
105.507
114.925
124.35
133.736
143.04
152.212
161.205
169.97
178.463
186.636
194.45
201.862
208.834
215.331
221.32
226.769
231.651
235.942
239.619
242.664
245.062
246.803
247.88
248.289
248.028
247.105
245.532
243.319
240.484
237.043
233.009
228.413
223.29
217.651
211.513
204.898
197.825
190.347
182.534
174.4
165.962
157.321
148.564
139.77
131.033
122.349
113.664
105.068
96.691
88.324
79.713
71.063
62.384
53.65
45.504
36.295
24.411
12.196
0.37
-6.778
-4.12
2.688
9.874
11.822
0.809
-16.332
-33.811
-47.665
-51.34
-49.534
-47.009
-44.832
-45.911
-48.578
-50.684
-52.657
-54.233
-55.574
-57.134
-58.642
-59.883
-60.951
-61.876
-62.647
-63.282
-63.81
-64.251
-64.655
-65.082
-65.52
-65.957
-66.407
-66.877
-67.374
-67.911
-68.488
-69.105
-69.772
-70.494
-71.275
-72.12
-73.028
-73.999
-75.034
-76.131
-77.289
-78.509
-79.789
-81.131
-82.535
-84.001
-85.529
-87.117
-88.764
-90.467
-92.221
-94.021
-95.862
-97.743
-99.661
-101.62
-103.625
-105.678
-107.785
-109.946
-112.159
-114.422
-116.73
-119.072
-121.441
-123.83
-126.241
-128.697
-131.217
-133.812
-136.488
-139.238
-142.046
-144.898
-147.767
-150.604
-153.367
-156.008
-158.495
-160.819
-162.977
-164.966
-166.767
-168.325
-169.592
-170.555
-171.223
-171.639
-171.848
-171.895
-171.854
-171.838
-172.001
-172.503
-173.469
-175.018
-177.229
-180.137
-183.876
-188.627
-194.389
-201.041
-208.229
-215.319
-221.806
-227.246
-230.954
-232.398
-231.449
-228.236
-223.704
-219.371
-216.425
-216.234
-220.239
-228.802
-241.34
-256.614
-271.792
-283.08
-286.885
-278.619
-253.221
-209.804
-151.219
-80.105
-1.32
85.901
189.828
308.048
429.547
532.468
582.153
562.4
478.342
348.515
204.079
59.736
-86.662
-236.405
-387.143
-518.515
-602.467
-626.135
-593.416
-526.726
-453.095
-386.71
-330.508
-279.06
-227.373
-177.185
-133.755
-103.136
-87.683
-85.789
-93.886
-107.541
-123.307
-138.455
-150.74
-158.444
-160.635
-157.268
-149.199
-137.918
-125.017
-112.117
-100.342
-90.429
-82.801
-77.42
-74.001
-72.042
-70.887
-69.839
-68.472
-66.597
-64.139
-61.17
-57.743
-53.893
-49.716
-45.33
-40.803
-36.151
-31.373
-26.446
-21.389
-16.261
-11.103
-5.945
-0.799
4.347
9.503
14.677
19.884
25.14
30.459
35.852
41.325
46.874
52.498
58.203
63.996
69.893
75.904
82.034
88.283
94.643
101.104
107.652
114.269
120.933
127.623
134.319
141.004
147.659
154.266
160.801
167.244
173.57
179.754
185.771
191.592
197.191
202.542
207.62
212.401
216.863
220.986
224.749
228.134
231.126
233.71
235.874
237.608
238.903
239.755
240.161
240.122
239.641
238.723
237.377
235.614
233.448
230.893
227.968
224.692
221.086
217.174
212.981
208.533
203.859
198.987
193.948
188.774
183.497
178.149
172.761
167.367
161.998
156.684
151.455
146.34
141.367
136.56
131.945
127.544
123.378
119.465
115.821
112.459
109.391
106.625
104.167
102.022
100.189
98.671
97.464
96.563
95.964
95.657
95.633
95.88
96.385
97.133
98.107
99.289
100.66
102.203
103.897
105.723
107.661
109.691
111.795
113.953
116.148
118.36
120.57
122.763
124.921
127.031
129.079
131.053
132.942
134.738
136.435
138.025
139.506
140.869
142.112
143.231
144.222
145.084
145.817
146.419
146.892
147.237
147.46
147.565
147.554
147.432
147.201
146.866
146.43
145.892
145.252
144.508
143.661
142.712
141.663
140.515
139.269
137.928
136.497
134.983
133.384
131.698
129.915
128.029
126.035
123.934
121.724
119.402
116.968
114.432
111.809
109.112
106.343
103.487
100.514
97.404
94.152
90.758
87.232
83.582
79.822
75.993
72.161
68.388
64.705
61.108
57.571
54.082
50.648
47.305
44.104
41.054
38.167
35.456
32.914
30.536
28.272
25.999
23.577
20.856
17.727
14.149
10.087
5.495
0.385
-5.319
-11.743
-18.795
-26.287
-33.868
-40.907
-46.895
-51.45
-54.007
-54.03
-51.441
-46.692
-41.027
-36.365
-34.328
-36.136
-42.744
-54.501
-70.872
-89.943
-108.366
-122.012
-126.552
-117.871
-92.623
-48.648
12.462
84.972
162.758
240.397
317.6
396.913
473.296
535.474
564.822
541.176
459.096
323.289
146.169
-50.624
-249.076
-429.378
-567.127
-649.945
-674.582
-650.223
-600.994
-543.838
-487.358
-433.138
-373.837
-308.738
-243.111
-183.382
-137.974
-110.14
-98.404
-100.643
-113.134
-131.879
-153.697
-174.877
-192.248
-204.324
-210.416
-210.401
-204.921
-195.133
-182.701
-169.849
-158.287
-148.864
-142.166
-138.934
-140.433
-147.508
-159.658
-175.242
-192.231
-208.905
-223.932
-235.645
-241.246
-238.033
-225.069
-203.344
-175.353
-144.108
-112.133
-81.579
-55.318
-36.684
-27.659
-28.435
-37.537
-51.868
-68.343
-85.06
-100.164
-111.242
-116.565
-115.107
-106.661
-93.144
-77.123
-59.945
-42.567
-26.031
-10.999
1.632
10.906
17.413
22.521
26.952
31.192
35.432
39.518
43.709
48.562
54.036
59.693
65.225
70.343
75.002
79.407
83.579
87.402
90.832
93.876
96.57
98.996
101.166
103.013
104.483
105.532
106.137
106.311
106.056
105.361
104.216
102.614
100.558
98.063
95.151
91.844
88.159
84.112
79.721
75.011
70.012
64.753
59.261
53.556
47.662
41.606
35.416
29.125
22.762
16.353
9.925
3.505
-2.882
-9.209
-15.452
-21.588
-27.596
-33.453
-39.14
-44.639
-49.931
-55.004
-59.843
-64.44
-68.787
-72.878
-76.709
-80.276
-83.581
-86.622
-89.402
-91.923
-94.191
-96.211
-97.991
-99.539
-100.865
-101.981
-102.897
-103.628
-104.185
-104.581
-104.831
-104.945
-104.937
-104.819
-104.603
-104.301
-103.923
-103.481
-102.984
-102.444
-101.868
-101.265
-100.642
-100.002
-99.35
-98.69
-98.023
-97.351
-96.674
-95.99
-95.301
-94.605
-93.903
-93.191
-92.47
-91.734
-90.982
-90.209
-89.411
-88.583
-87.72
-86.817
-85.87
-84.877
-83.835
-82.744
-81.607
-80.425
-79.202
-77.94
-76.642
-75.311
-73.947
-72.552
-71.124
-69.664
-68.174
-66.657
-65.123
-63.583
-62.045
-60.518
-59.011
-57.526
-56.071
-54.65
-53.254
-51.88
-50.529
-49.21
-47.952
-46.784
-45.723
-44.78
-43.957
-43.245
-42.648
-42.153
-41.718
-41.307
-40.876
-40.394
-39.878
-39.348
-38.809
-38.249
-37.62
-36.878
-36.024
-35.088
-34.092
-33.06
-32.005
-30.954
-30.005
-29.295
-28.977
-29.18
-29.97
-31.38
-33.42
-36.201
-39.948
-44.691
-50.225
-56.11
-61.664
-66.332
-69.866
-71.799
-71.425
-68.595
-63.567
-57.377
-52.177
-49.717
-51.093
-57.556
-69.929
-87.764
-109.858
-133.392
-153.574
-165.913
-166.084
-149.448
-112.25
-54.926
18.071
101.522
188.098
277.598
376.914
482.754
585.346
664.73
690.003
647.184
539.33
377.634
184.312
-20.438
-222.196
-398.802
-524.114
-584.963
-580.153
-526.027
-455.416
-389.361
-335.829
-294.413
-254.638
-212.833
-172.587
-137.797
-114.039
-103.421
-103.585
-111.075
-121.739
-132.11
-140.538
-146.408
-149.158
-148.07
-143.077
-134.892
-124.974
-115.184
-106.531
-99.207
-93.338
-89.074
-86.439
-85.302
-85.111
-84.986
-84.408
-83.208
-81.345
-78.884
-75.819
-72.09
-67.741
-62.92
-57.745
-52.285
-46.559
-40.536
-34.234
-27.713
-21.048
-14.305
-7.515
-0.685
6.184
13.098
20.058
27.069
34.143
41.291
48.523
55.843
63.246
70.723
78.275
85.906
93.623
101.435
109.337
117.316
125.359
133.446
141.556
149.665
157.744
165.764
173.699
181.523
189.212
196.739
204.079
211.202
218.079
224.681
230.978
236.94
242.537
247.742
252.528
256.872
260.75
264.144
267.034
269.404
271.24
272.53
273.266
273.442
273.052
272.097
270.579
268.505
265.882
262.722
259.04
254.854
250.183
245.05
239.481
233.502
227.143
220.435
213.41
206.105
198.553
190.793
182.861
174.797
166.638
158.424
150.192
141.981
133.826
125.763
117.828
110.052
102.468
95.105
87.99
81.149
74.606
68.381
62.492
56.954
51.78
46.98
42.562
38.529
34.886
31.63
28.761
26.273
24.16
22.413
21.02
19.969
19.247
18.836
18.721
18.884
19.306
19.969
20.856
21.946
23.221
24.663
26.251
27.968
29.794
31.711
33.703
35.752
37.843
39.964
42.101
44.242
46.38
48.505
50.611
52.69
54.738
56.748
58.716
60.639
62.516
64.345
66.125
67.859
69.546
71.188
72.789
74.351
75.871
77.351
78.785
80.173
81.511
82.796
84.024
85.195
86.309
87.366
88.37
89.324
90.227
91.078
91.873
92.605
93.266
93.847
94.339
94.738
95.04
95.245
95.359
95.385
95.321
95.163
94.894
94.492
93.943
93.235
92.363
91.341
90.187
88.928
87.608
86.266
84.941
83.666
82.455
81.31
80.225
79.203
78.271
77.459
76.786
76.259
75.848
75.503
75.175
74.795
74.258
73.485
72.355
70.74
68.561
65.734
62.216
58.013
53.024
47.113
40.327
32.863
25.148
17.877
11.585
6.682
3.792
3.398
5.561
9.994
15.586
20.603
23.701
23.693
19.373
10.377
-2.717
-18.456
-33.813
-45.013
-48.56
-40.528
-17.01
24.792
84.255
156.753
236.631
317.584
399.448
487.828
580.375
669.171
736.953
756.853
716.049
616.047
466.358
287.436
98.748
-85.736
-246.194
-360.11
-416.949
-416.398
-372.372
-312.968
-256.583
-209.636
-171.96
-135.762
-97.944
-61.244
-29.316
-6.478
6.268
10.29
8.578
5.59
3.641
3.419
5.36
9.02
14.155
21.258
29.455
36.719
41.96
44.626
44.616
42.634
39.058
33.722
27.009
19.719
12.38
5.515
-0.617
-6.18
-11.143
-15.311
-18.579
-20.817
-21.95
-22.071
-21.247
-19.535
-17.093
-14.035
-10.48
-6.596
-2.479
1.815
6.239
10.811
15.551
20.449
25.478
30.586
35.717
40.861
46.026
51.234
56.534
61.958
67.537
73.32
79.33
85.572
92.036
98.685
105.469
112.356
119.312
126.311
133.33
140.342
147.312
154.21
160.996
167.634
174.082
180.297
186.237
191.863
197.143
202.048
206.556
210.646
214.295
217.486
220.2
222.42
224.133
225.324
225.98
226.095
225.663
224.682
223.152
221.079
218.469
215.329
211.673
207.513
202.864
197.744
192.171
186.168
179.757
172.964
165.815
158.337
150.559
142.512
134.226
125.733
117.065
108.254
99.33
90.326
81.273
72.203
63.143
54.119
45.155
36.275
27.506
18.872
10.397
2.099
-6.003
-13.894
-21.554
-28.968
-36.121
-43.007
-49.626
-55.974
-62.047
-67.836
-73.33
-78.528
-83.44
-88.079
-92.455
-96.573
-100.432
-104.042
-107.419
-110.581
-113.539
-116.288
-118.808
-121.084
-123.111
-124.906
-126.495
-127.879
-129.028
-129.888
-130.4
-130.554
-130.389
-129.952
-129.264
-128.298
-126.988
-125.367
-123.605
-121.804
-119.882
-117.503
-114.251
-109.986
-105.02
-99.794
-94.498
-89.268
-84.426
-80.89
-79.989
-82.597
-88.549
-96.781
-106.185
-115.83
-124.919
-132.078
-135.219
-132.539
-123.443
-109.052
-91.274
-72.027
-52.673
-34.612
-19.851
-10.468
-7.861
-11.672
-20.194
-31.332
-43.625
-56.153
-67.855
-77.458
-83.681
-86.226
-85.945
-84.226
-82.09
-79.939
-77.96
-76.413
-75.816
-76.492
-78.249
-80.542
-82.902
-85.17
-87.375
-89.618
-91.877
-94.031
-96.069
-98.128
-100.351
-102.861
-105.731
-108.911
-112.392
-116.26
-120.588
-125.477
-131.015
-137.161
-143.959
-151.589
-160.024
-169.116
-178.518
-187.476
-195.383
-201.915
-206.52
-208.603
-208.117
-205.296
-201.041
-197.245
-195.344
-196.185
-200.999
-210.715
-225.072
-243.06
-262.161
-278.127
-287.553
-287.484
-273.758
-242.789
-192.637
-124.611
-44.605
40.508
126.635
215.534
309.95
404.923
487.293
535.29
529.577
466.371
354.367
209.582
47.652
-121
-286
-430.437
-534.849
-586.994
-588.142
-555.482
-509.823
-464.484
-422.966
-380.087
-333.007
-283.883
-237.256
-199.561
-173.951
-160.507
-157.959
-162.969
-171.714
-181.115
-189.084
-194.673
-197.288
-196.07
-190.764
-181.996
-171.27
-160.549
-150.964
-142.81
-136.227
-131.38
-128.337
-126.985
-126.756
-126.729
-126.344
-125.4
-123.853
-121.766
-119.128
-115.868
-112.025
-107.742
-103.131
-98.261
-93.139
-87.732
-82.053
-76.16
-70.133
-64.041
-57.919
-51.778
-45.618
-39.437
-33.234
-27.006
-20.743
-14.434
-8.074
-1.659
4.802
11.299
17.83
24.397
31.009
37.672
44.384
51.132
57.903
64.677
71.436
78.157
84.811
91.371
97.814
104.115
110.253
116.207
121.951
127.461
132.714
137.684
142.346
146.676
150.651
154.248
157.449
160.236
162.593
164.508
165.967
166.962
167.484
167.53
167.096
166.182
164.789
162.922
160.587
157.796
154.559
150.891
146.808
142.328
137.474
132.268
126.736
120.903
114.799
108.455
101.901
95.171
88.298
81.315
74.259
67.162
60.06
52.986
45.974
39.057
32.265
25.63
19.181
12.944
6.944
1.205
-4.251
-9.408
-14.247
-18.756
-22.923
-26.739
-30.196
-33.29
-36.017
-38.377
-40.373
-42.009
-43.292
-44.231
-44.839
-45.129
-45.118
-44.823
-44.262
-43.455
-42.424
-41.188
-39.771
-38.195
-36.483
-34.657
-32.743
-30.765
-28.746
-26.71
-24.676
-22.667
-20.702
-18.8
-16.976
-15.244
-13.619
-12.114
-10.741
-9.513
-8.44
-7.53
-6.792
-6.232
-5.855
-5.664
-5.66
-5.842
-6.207
-6.755
-7.482
-8.386
-9.462
-10.709
-12.126
-13.712
-15.463
-17.375
-19.441
-21.654
-24.006
-26.488
-29.086
-31.788
-34.584
-37.467
-40.437
-43.494
-46.635
-49.856
-53.152
-56.515
-59.945
-63.431
-66.953
-70.497
-74.05
-77.615
-81.22
-84.882
-88.604
-92.384
-96.208
-100.059
-103.932
-107.792
-111.577
-115.231
-118.692
-121.939
-125
-127.883
-130.59
-133.104
-135.367
-137.361
-139.115
-140.64
-141.961
-143.107
-144.092
-145.003
-145.994
-147.218
-148.843
-150.973
-153.657
-156.958
-160.891
-165.536
-171.046
-177.34
-184.164
-191.131
-197.585
-202.99
-207.037
-209.197
-208.973
-206.367
-201.619
-195.78
-190.705
-187.818
-188.303
-193.177
-202.434
-215.294
-230.464
-244.898
-254.465
-255.426
-243.68
-215.996
-171.467
-110.397
-34.587
51.388
141.491
228.961
305.338
362.766
395.574
399.136
371.019
312.034
225.164
115.74
-8.09
-137.6
-264.304
-379.362
-475.17
-546.347
-589.887
-605.761
-596.322
-564.9
-516.299
-456.936
-393.689
-333.158
-280.034
-236.573
-204.097
-183.545
-174.345
-174.51
-180.818
-189.112
-196.655
-202.352
-205.214
-204.321
-199.417
-190.759
-179.62
-168.204
-157.767
-148.638
-141.048
-135.025
-130.55
-127.621
-125.725
-123.925
-121.674
-118.756
-115.113
-110.886
-106.102
-100.693
-94.72
-88.327
-81.632
-74.726
-67.637
-60.339
-52.852
-45.239
-37.572
-29.919
-22.303
-14.726
-7.179
0.351
7.871
15.387
22.919
30.476
38.065
45.689
53.342
61.015
68.712
76.438
84.201
92.007
99.853
107.729
115.623
123.518
131.392
139.224
146.986
154.653
162.201
169.607
176.847
183.9
190.737
197.333
203.662
209.695
215.405
220.763
225.741
230.314
234.458
238.152
241.377
244.114
246.349
248.068
249.262
249.922
250.043
249.621
248.653
247.142
245.092
242.509
239.402
235.782
231.665
227.066
222.007
216.509
210.596
204.296
197.636
190.647
183.363
175.816
168.041
160.075
151.955
143.717
135.4
127.041
118.677
110.343
102.075
93.906
85.868
77.992
70.308
62.84
55.615
48.656
41.983
35.616
29.572
23.863
18.504
13.503
8.869
4.608
0.723
-2.786
-5.92
-8.682
-11.079
-13.119
-14.814
-16.174
-17.215
-17.95
-18.397
-18.573
-18.5
-18.192
-17.665
-16.937
-16.025
-14.95
-13.738
-12.4
-10.942
-9.402
-7.81
-6.192
-4.581
-2.976
-1.353
0.248
1.792
3.331
4.905
6.541
8.291
10.1
11.863
13.63
15.496
17.2
18.438
19.393
20.049
20.349
20.948
20.085
16.045
11.279
6.529
6.294
15.963
29.572
43.149
50.776
44.327
31
16.901
6.216
5.856
10.887
16.303
20.99
21.899
20.801
19.978
19
18.162
17.323
16.043
14.639
13.361
12.122
10.876
9.631
8.375
7.09
5.775
4.39
2.889
1.322
-0.237
-1.744
-3.152
-4.459
-5.703
-6.896
-8.029
-9.078
-9.986
-10.727
-11.325
-11.789
-12.115
-12.308
-12.354
-12.309
-12.33
-12.547
-13.072
-13.982
-15.289
-17.025
-19.333
-22.38
-26.219
-30.814
-35.848
-40.729
-44.915
-47.915
-49.106
-47.933
-44.291
-38.162
-30.309
-23.081
-18.64
-18.706
-25.572
-38.42
-55.119
-76.747
-100.923
-126.836
-154.446
-172.639
-172.48
-144.904
-81.011
11.09
121.385
238.589
347.738
444.751
525.014
581.554
611.266
607.932
568.193
494.842
392.239
267.648
130.452
-10.36
-145.654
-266.069
-364.091
-434.442
-474.313
-483.741
-464.755
-421.108
-358.308
-283.466
-204.122
-127.597
-59.844
-4.732
35.03
58.359
66.023
60.414
45.251
25.133
4.357
-14.044
-27.644
-34.993
-35.781
-30.461
-20.348
-7.544
5.782
18.21
28.781
37.045
43.085
47.105
49.506
51.021
52.451
54.265
56.692
59.759
63.307
67.251
71.548
76.083
80.727
85.406
90.072
94.718
99.368
103.994
108.562
113.055
117.449
121.749
125.981
130.161
134.315
138.468
142.632
146.81
151.005
155.213
159.429
163.656
167.899
172.166
176.468
180.812
185.204
189.643
194.123
198.63
203.149
207.656
212.133
216.563
220.929
225.214
229.4
233.467
237.394
241.159
244.74
248.11
251.242
254.109
256.686
258.95
260.877
262.448
263.642
264.442
264.831
264.796
264.322
263.4
262.018
260.17
257.85
255.054
251.781
248.034
243.817
239.136
234.001
228.424
222.419
216.003
209.196
202.02
194.497
186.654
178.518
170.12
161.489
152.659
143.664
134.537
125.313
116.028
106.715
97.41
88.144
78.953
69.866
60.916
52.132
43.542
35.172
27.048
19.192
11.628
4.373
-2.555
-9.141
-15.371
-21.234
-26.72
-31.824
-36.541
-40.868
-44.807
-48.361
-51.535
-54.336
-56.775
-58.863
-60.614
-62.042
-63.162
-63.993
-64.551
-64.855
-64.924
-64.776
-64.432
-63.912
-63.235
-62.421
-61.489
-60.457
-59.342
-58.162
-56.934
-55.671
-54.39
-53.104
-51.826
-50.572
-49.355
-48.188
-47.083
-46.049
-45.097
-44.236
-43.472
-42.81
-42.255
-41.808
-41.473
-41.252
-41.148
-41.164
-41.306
-41.575
-41.976
-42.512
-43.186
-43.997
-44.944
-46.023
-47.228
-48.555
-50
-51.563
-53.244
-55.043
-56.961
-58.997
-61.145
-63.397
-65.742
-68.165
-70.647
-73.173
-75.733
-78.328
-80.979
-83.701
-86.505
-89.387
-92.341
-95.355
-98.412
-101.486
-104.533
-107.507
-110.367
-113.084
-115.649
-118.06
-120.301
-122.329
-124.069
-125.446
-126.432
-127.039
-127.281
-127.173
-126.721
-125.932
-124.909
-123.82
-122.782
-121.92
-121.351
-121.092
-121.303
-122.31
-124.204
-126.931
-130.271
-133.551
-136.119
-137.598
-137.312
-134.517
-129.234
-121.865
-113.301
-105.574
-101.011
-101.339
-108.316
-123.564
-144.514
-167.709
-192.294
-213.381
-229.787
-241.351
-236.132
-207.751
-152.222
-63.766
47.247
174.347
314.556
454.538
584.068
682.968
728.86
716.353
647.22
536.938
404.203
254.196
95.057
-63.477
-211.383
-328.196
-404.222
-444.981
-457.642
-455.434
-445.321
-423.393
-388.962
-343.835
-293.136
-245.782
-206.925
-177.637
-157.502
-144.999
-139.328
-139.8
-144.35
-150.588
-156.393
-160.755
-163.746
-165.516
-165.812
-164.206
-160.885
-156.645
-152.642
-149.573
-147.43
-146.017
-145.218
-145.167
-145.898
-147.101
-148.159
-148.561
-148.115
-146.806
-144.721
-141.861
-138.161
-133.647
-128.447
-122.709
-116.538
-109.999
-103.102
-95.872
-88.379
-80.686
-72.843
-64.887
-56.823
-48.654
-40.381
-32.002
-23.511
-14.908
-6.191
2.638
11.575
20.611
29.739
38.948
48.232
57.585
66.997
76.456
85.941
95.429
104.893
114.305
123.631
132.842
141.909
150.805
159.501
167.972
176.189
184.126
191.757
199.052
205.983
212.522
218.64
224.312
229.515
234.226
238.427
242.099
245.229
247.805
249.816
251.256
252.12
252.407
252.117
251.255
249.826
247.841
245.312
242.254
238.684
234.623
230.092
225.117
219.724
213.942
207.802
201.334
194.572
187.551
180.307
172.876
165.294
157.6
149.831
142.024
134.215
126.44
118.734
111.129
103.658
96.348
89.229
82.324
75.656
69.244
63.107
57.259
51.711
46.472
41.55
36.947
32.667
28.708
25.067
21.739
18.716
15.987
13.542
11.365
9.441
7.753
6.283
5.012
3.92
2.987
2.193
1.517
0.94
0.441
-0
-0.403
-0.788
-1.172
-1.572
-2.003
-2.478
-3.009
-3.605
-4.274
-5.02
-5.848
-6.759
-7.756
-8.841
-10.011
-11.266
-12.601
-14.012
-15.493
-17.037
-18.634
-20.273
-21.945
-23.638
-25.343
-27.049
-28.748
-30.43
-32.09
-33.722
-35.322
-36.881
-38.391
-39.844
-41.233
-42.548
-43.779
-44.917
-45.953
-46.887
-47.722
-48.466
-49.126
-49.709
-50.221
-50.663
-51.044
-51.364
-51.616
-51.796
-51.904
-51.949
-51.966
-51.988
-52.032
-52.113
-52.232
-52.377
-52.544
-52.707
-52.81
-52.8
-52.63
-52.282
-51.786
-51.175
-50.464
-49.658
-48.731
-47.661
-46.475
-45.187
-43.808
-42.384
-40.956
-39.629
-38.586
-37.988
-37.978
-38.665
-40.097
-42.316
-45.381
-49.286
-54.042
-59.725
-66.215
-73.26
-80.473
-87.211
-92.875
-97.027
-99.244
-99.053
-96.407
-91.852
-86.476
-82.009
-80.09
-81.736
-87.318
-96.805
-109.428
-123.145
-134.853
-140.65
-136.594
-119.206
-86.255
-37.059
28.043
104.582
184.17
261.481
331.646
391.77
445.243
484.537
496.695
474.52
405.906
294.338
154.774
-7.285
-176.177
-339.567
-488.02
-595.577
-647.596
-636.373
-562.352
-452.245
-333.703
-234.713
-177.656
-160.566
-171.532
-191.554
-202.708
-200.704
-188.938
-175.436
-166.469
-163.054
-162.991
-162.008
-157.89
-150.361
-140.29
-130.062
-121.142
-113.762
-108.02
-103.586
-100.156
-97.967
-96.908
-96.371
-95.887
-95.071
-93.687
-91.81
-89.506
-86.685
-83.312
-79.419
-75.041
-70.275
-65.21
-59.86
-54.242
-48.394
-42.362
-36.222
-30.051
-23.89
-17.755
-11.654
-5.578
0.477
6.511
12.529
18.55
24.59
30.668
36.794
42.967
49.191
55.48
61.852
68.323
74.897
81.567
88.322
95.155
102.058
109.023
116.031
123.056
130.076
137.072
144.029
150.935
157.768
164.497
171.096
177.54
183.813
189.907
195.793
201.44
206.805
211.843
216.525
220.823
224.718
228.187
231.187
233.683
235.649
237.069
237.965
238.362
238.233
237.55
236.3
234.453
232.143
229.563
226.622
223.247
219.327
214.651
209.439
204.057
198.397
192.293
186.093
180.056
174.921
171.844
170.571
170.341
170.913
171.775
172.107
171.426
168.157
159.984
146.846
129.587
109.073
87.1
65.103
43.844
25.379
12.472
5.766
4.969
9.066
15.678
23.3
31.25
37.971
41.608
41.429
37.22
29.662
20.56
10.918
1.107
-8.248
-16.61
-23.621
-28.992
-32.952
-36.236
-39.262
-42.164
-44.992
-47.633
-50.092
-52.454
-54.804
-57.168
-59.347
-61.185
-62.587
-63.48
-64.118
-64.838
-65.501
-65.857
-66.274
-67.158
-69.123
-72.984
-78.206
-83.713
-89.316
-95.019
-100.18
-104.174
-105.783
-103.321
-97.42
-89.853
-81.338
-72.383
-63.724
-55.867
-50.187
-48.708
-51.061
-55.486
-61.039
-66.911
-72.566
-77.926
-82.109
-83.631
-82.551
-79.954
-76.545
-73.014
-69.628
-66.186
-62.98
-60.668
-59.34
-58.664
-58.364
-58.114
-57.842
-57.738
-57.81
-57.92
-58.002
-58.05
-58.111
-58.291
-58.619
-59.033
-59.465
-59.843
-60.136
-60.369
-60.553
-60.67
-60.713
-60.69
-60.654
-60.765
-61.175
-61.975
-63.245
-65.01
-67.275
-70.144
-73.75
-78.078
-82.976
-88.095
-92.86
-96.843
-99.716
-101.014
-100.383
-97.764
-93.444
-88.504
-84.657
-83.369
-85.917
-93.407
-106.029
-123.095
-143.244
-163.565
-180.052
-188.919
-186.245
-168.497
-134.208
-83.517
-17.677
59.541
142.449
224.882
299.245
357.47
393.768
403.719
383.881
334.201
257.42
157.885
42.94
-78.105
-197.1
-305.859
-396.103
-462.859
-503.907
-518.901
-510.715
-484.451
-445.1
-398.732
-352.407
-310.846
-276.906
-252.309
-236.69
-228.601
-226.636
-228.475
-231.004
-232.415
-231.854
-228.94
-224.258
-218.504
-212.133
-205.965
-200.983
-197.605
-195.911
-195.758
-196.619
-198.065
-199.811
-201.47
-202.752
-203.499
-203.569
-202.924
-201.606
-199.62
-196.968
-193.675
-189.734
-185.166
-180.033
-174.384
-168.294
-161.849
-155.128
-148.217
-141.173
-134.021
-126.785
-119.469
-112.07
-104.586
-97.006
-89.314
-81.512
-73.6
-65.578
-57.449
-49.21
-40.858
-32.39
-23.801
-15.095
-6.28
2.631
11.618
20.66
29.734
38.81
47.858
56.849
65.756
74.553
83.215
91.718
100.033
108.135
115.997
123.593
130.895
137.875
144.506
150.761
156.618
162.053
167.046
171.581
175.64
179.211
182.281
184.843
186.891
188.42
189.428
189.918
189.892
189.358
188.326
186.808
184.819
182.376
179.499
176.21
172.533
168.492
164.114
159.428
154.463
149.25
143.82
138.205
132.439
126.555
120.585
114.565
108.525
102.498
96.516
90.608
84.804
79.129
73.611
68.271
63.133
58.214
53.533
49.104
44.94
41.049
37.441
34.121
31.091
28.354
25.909
23.751
21.876
20.277
18.945
17.87
17.04
16.441
16.061
15.885
15.897
16.084
16.428
16.916
17.53
18.256
19.076
19.976
20.939
21.952
23
24.072
25.156
26.242
27.321
28.387
29.435
30.46
31.459
32.426
33.361
34.262
35.128
35.96
36.76
37.528
38.27
38.989
39.69
40.378
41.058
41.733
42.406
43.077
43.746
44.411
45.072
45.727
46.377
47.023
47.665
48.307
48.953
49.607
50.27
50.941
51.613
52.274
52.918
53.536
54.124
54.677
55.19
55.661
56.095
56.494
56.86
57.179
57.418
57.544
57.538
57.388
57.095
56.67
56.115
55.447
54.712
53.95
53.206
52.51
51.851
51.209
50.579
49.973
49.442
49.031
48.744
48.559
48.442
48.359
48.284
48.172
47.92
47.383
46.405
44.848
42.613
39.642
35.923
31.341
25.71
19.033
11.492
3.555
-4.013
-10.589
-15.757
-18.967
-19.763
-18.144
-14.425
-9.835
-6.454
-6.016
-10.038
-19.775
-35.247
-55.457
-78.667
-101.262
-118.452
-125.766
-118.298
-91.921
-45.16
21.767
106.82
204.776
308.706
410.931
501.82
572.086
614.951
625.031
599.277
538.403
445.765
327.172
191.789
49.713
-89.857
-217.51
-324.764
-405.622
-456.728
-477.76
-471.733
-443.006
-395.97
-336.572
-271.733
-208.006
-150.722
-102.938
-65.435
-38.398
-22.204
-15.752
-16.609
-21.602
-27.408
-32.196
-35.544
-37.102
-36.284
-33.157
-28.354
-23.201
-19.515
-18.146
-19.107
-22.3
-27.554
-34.661
-43.37
-53.073
-62.886
-72.278
-81.009
-88.938
-96.019
-102.088
-106.97
-110.63
-113.137
-114.606
-115.143
-114.867
-113.919
-112.462
-110.648
-108.588
-106.346
-103.941
-101.394
-98.713
-95.901
-92.993
-90.01
-86.97
-83.904
-80.809
-77.663
-74.428
-71.032
-67.406
-63.505
-59.3
-54.777
-49.948
-44.826
-39.44
-33.835
-28.05
-22.119
-16.074
-9.939
-3.744
2.475
8.675
14.811
20.831
26.692
32.35
37.761
42.886
47.69
52.144
56.224
59.91
63.179
66.01
68.382
70.277
71.679
72.577
72.961
72.822
72.161
70.978
69.283
67.084
64.397
61.238
57.629
53.593
49.157
44.35
39.203
33.751
28.027
22.07
15.917
9.609
3.186
-3.312
-9.843
-16.366
-22.841
-29.227
-35.486
-41.582
-47.479
-53.142
-58.539
-63.642
-68.422
-72.855
-76.918
-80.592
-83.862
-86.715
-89.142
-91.137
-92.699
-93.827
-94.526
-94.804
-94.671
-94.138
-93.223
-91.944
-90.32
-88.374
-86.13
-83.612
-80.847
-77.86
-74.68
-71.334
-67.85
-64.256
-60.581
-56.854
-53.103
-49.356
-45.639
-41.976
-38.391
-34.907
-31.545
-28.321
-25.253
-22.355
-19.642
-17.125
-14.815
-12.722
-10.851
-9.208
-7.794
-6.612
-5.66
-4.934
-4.432
-4.146
-4.07
-4.2
-4.529
-5.052
-5.764
-6.66
-7.735
-8.983
-10.396
-11.964
-13.677
-15.521
-17.481
-19.544
-21.695
-23.922
-26.22
-28.583
-31.006
-33.482
-36.006
-38.565
-41.154
-43.762
-46.368
-48.954
-51.509
-54.026
-56.527
-59.027
-61.532
-64.044
-66.554
-69.045
-71.506
-73.912
-76.204
-78.332
-80.241
-81.888
-83.286
-84.45
-85.385
-86.081
-86.495
-86.589
-86.369
-85.865
-85.105
-84.126
-82.957
-81.654
-80.355
-79.22
-78.429
-78.141
-78.41
-79.265
-80.725
-82.872
-85.913
-89.909
-94.649
-99.715
-104.581
-108.759
-111.947
-113.657
-113.083
-109.871
-104.222
-97.101
-90.123
-84.613
-82.013
-83.74
-90.704
-103.313
-118.803
-132.851
-143.439
-147.015
-143.219
-132.34
-105.235
-58.44
9.775
102.014
206.246
317.102
432.438
539.653
629.585
684.505
684.562
625.87
514.573
365.552
195.56
17.48
-156.437
-310.043
-424.006
-486.016
-497.849
-475.977
-441.266
-407.526
-377.048
-342.496
-299.486
-250.247
-200.055
-156.222
-122.022
-96.325
-78.349
-67.577
-62.628
-61.927
-63.589
-65.277
-65.941
-65.718
-64.156
-60.362
-54.259
-46.242
-37.2
-28.758
-21.663
-15.774
-11.183
-8.025
-6.251
-5.796
-6.212
-6.629
-6.57
-5.909
-4.563
-2.609
-0.029
3.301
7.374
12.104
17.395
23.106
29.159
35.549
42.22
49.097
56.102
63.138
70.179
77.256
84.397
91.639
98.991
106.439
113.98
121.597
129.29
137.079
144.964
152.94
161.018
169.224
177.59
186.147
194.868
203.662
212.426
221.092
229.639
238.083
246.42
254.599
262.531
270.232
277.825
285.33
292.571
299.117
304.479
308.531
311.599
314.029
315.882
317.276
318.61
320.876
325.334
332.403
341.339
351.168
361.381
371.237
380.03
386.579
388.588
386.904
383.814
378.56
371.678
359.599
337.758
312.754
289.755
275.31
276.93
286.538
297.268
304.574
301.593
292.909
282.848
272.075
263.628
256.313
248.437
240.682
232.81
224.881
217.372
210.101
202.862
195.691
188.535
181.333
174.126
167.016
160.079
153.384
146.988
140.857
134.966
129.326
123.939
118.805
113.925
109.283
104.86
100.648
96.637
92.813
89.159
85.655
82.278
79.009
75.839
72.761
69.768
66.851
63.999
61.2
58.443
55.72
53.025
50.351
47.692
45.044
42.405
39.776
37.158
34.554
31.965
29.394
26.842
24.316
21.82
19.364
16.954
14.602
12.316
10.109
7.992
5.977
4.074
2.292
0.637
-0.885
-2.27
-3.514
-4.614
-5.568
-6.374
-7.026
-7.522
-7.855
-8.021
-8.021
-7.855
-7.53
-7.054
-6.44
-5.7
-4.848
-3.893
-2.844
-1.707
-0.484
0.82
2.199
3.637
5.105
6.57
8.007
9.389
10.699
11.94
13.117
14.242
15.344
16.448
17.573
18.737
19.933
21.144
22.35
23.536
24.717
25.914
27.137
28.382
29.613
30.765
31.78
32.578
33.052
33.126
32.69
31.619
29.829
27.226
23.756
19.423
14.113
7.658
0.084
-8.415
-17.339
-25.867
-33.354
-39.314
-43.106
-44.283
-42.852
-39.221
-34.848
-31.906
-32.108
-36.985
-47.767
-64.498
-86.286
-111.274
-135.423
-153.877
-162.577
-156.636
-131.745
-86.518
-20.609
62.45
153.405
245.954
335.559
418.255
495.476
559.523
594.512
586.98
522.623
404.507
253.183
89.063
-65.531
-199.596
-315.128
-411.173
-487.143
-541.536
-570.133
-573.86
-556.997
-523.931
-480.219
-431.286
-381.661
-334.93
-293.25
-257.869
-229.578
-208.869
-196.104
-190.642
-190.947
-195.798
-204.264
-215.037
-226.562
-237.379
-245.974
-251.602
-254.363
-254.359
-251.805
-247.391
-242.1
-236.762
-232.113
-228.486
-225.766
-223.822
-222.47
-221.342
-219.943
-217.919
-215.056
-211.286
-206.725
-201.475
-195.606
-189.224
-182.463
-175.424
-168.177
-160.771
-153.191
-145.43
-137.503
-129.414
-121.174
-112.786
-104.234
-95.499
-86.576
-77.462
-68.157
-58.669
-49.004
-39.166
-29.166
-19.015
-8.726
1.681
12.187
22.775
33.422
44.105
54.793
65.448
76.036
86.524
96.881
107.077
117.077
126.85
136.361
145.581
154.475
163.012
171.157
178.877
186.138
192.912
199.17
204.888
210.042
214.61
218.575
221.919
224.629
226.696
228.11
228.866
228.962
228.398
227.18
225.315
222.813
219.687
215.954
211.634
206.748
201.322
195.384
188.963
182.091
174.803
167.134
159.121
150.802
142.216
133.402
124.402
115.254
106
96.678
87.329
77.99
68.7
59.493
50.404
41.464
32.706
24.156
15.842
7.787
0.014
-7.457
-14.61
-21.428
-27.9
-34.016
-39.769
-45.156
-50.175
-54.827
-59.118
-63.051
-66.636
-69.882
-72.798
-75.398
-77.694
-79.701
-81.431
-82.902
-84.13
-85.132
-85.926
-86.528
-86.955
-87.224
-87.35
-87.348
-87.232
-87.013
-86.706
-86.321
-85.871
-85.369
-84.826
-84.253
-83.66
-83.055
-82.447
-81.842
-81.243
-80.654
-80.078
-79.515
-78.97
-78.442
-77.934
-77.447
-76.986
-76.553
-76.155
-75.794
-75.471
-75.188
-74.945
-74.743
-74.58
-74.454
-74.362
-74.306
-74.292
-74.327
-74.418
-74.573
-74.792
-75.075
-75.42
-75.82
-76.268
-76.755
-77.264
-77.795
-78.359
-78.976
-79.675
-80.475
-81.381
-82.388
-83.491
-84.665
-85.877
-87.094
-88.268
-89.378
-90.424
-91.414
-92.379
-93.334
-94.265
-95.136
-95.882
-96.444
-96.801
-96.946
-96.877
-96.634
-96.275
-95.884
-95.598
-95.521
-95.74
-96.31
-97.189
-98.385
-99.964
-101.924
-104.22
-106.634
-108.663
-109.831
-109.794
-108.102
-104.465
-98.959
-91.843
-84.137
-77.532
-73.526
-73.632
-79.133
-90.224
-106.23
-125.673
-145.329
-161.195
-169.565
-166.175
-147.574
-112.466
-60.714
5.87
82.36
162.92
241.508
309.919
360.272
387.088
385.184
353.761
298.337
221.921
126.826
16.01
-112.149
-248.711
-374.356
-471.819
-522.688
-524.876
-494.247
-446.04
-397.503
-356.558
-319.029
-284.165
-251.143
-220.59
-197.534
-183.185
-175.917
-174.111
-174.476
-174.228
-172.586
-169.128
-163.783
-157.15
-149.789
-142.167
-135.03
-129.066
-124.443
-121.113
-118.82
-117.078
-115.529
-113.89
-111.9
-109.378
-106.21
-102.337
-97.774
-92.584
-86.814
-80.508
-73.696
-66.398
-58.67
-50.576
-42.2
-33.635
-24.969
-16.289
-7.658
0.895
9.345
17.681
25.905
34.021
42.04
49.979
57.841
65.621
73.318
80.929
88.458
95.913
103.301
110.63
117.904
125.122
132.279
139.367
146.374
153.286
160.087
166.756
173.277
179.638
185.826
191.83
197.639
203.239
208.617
213.763
218.661
223.297
227.654
231.715
235.465
238.888
241.972
244.702
247.068
249.059
250.666
251.881
252.7
253.119
253.134
252.745
251.952
250.759
249.171
247.194
244.838
242.113
239.031
235.605
231.85
227.783
223.418
218.774
213.868
208.718
203.345
197.767
192.005
186.083
180.02
173.842
167.571
161.231
154.847
148.441
142.039
135.661
129.331
123.07
116.896
110.83
104.887
99.084
93.434
87.949
82.641
77.517
72.586
67.853
63.322
58.995
54.875
50.962
47.254
43.751
40.45
37.348
34.442
31.728
29.203
26.86
24.696
22.703
20.876
19.206
17.685
16.304
15.054
13.926
12.91
11.998
11.181
10.451
9.801
9.224
8.715
8.269
7.88
7.544
7.256
7.013
6.812
6.651
6.527
6.44
6.387
6.369
6.384
6.432
6.51
6.616
6.748
6.899
7.063
7.233
7.402
7.564
7.712
7.844
7.955
8.043
8.112
8.161
8.19
8.197
8.174
8.114
8.009
7.852
7.637
7.364
7.029
6.632
6.179
5.673
5.115
4.494
3.78
2.941
1.958
0.815
-0.487
-1.941
-3.539
-5.258
-7.058
-8.899
-10.742
-12.558
-14.344
-16.1
-17.832
-19.523
-21.117
-22.567
-23.843
-24.949
-25.928
-26.822
-27.677
-28.559
-29.561
-30.817
-32.48
-34.672
-37.521
-41.116
-45.476
-50.734
-57.093
-64.557
-73.003
-82.04
-90.879
-98.874
-105.502
-110.019
-111.938
-111.296
-108.418
-104.614
-101.951
-102.124
-106.948
-118.139
-135.954
-159.395
-186.581
-213.694
-235.815
-248.294
-245.488
-221.636
-175.863
-111.505
-32.126
55.943
152.537
264.724
388.093
510.96
610.137
651.592
621.992
524.976
379.101
213.099
38.172
-138.895
-312.519
-472.697
-592.001
-653.688
-652.154
-596.604
-514.477
-423.878
-339.888
-269.522
-211.059
-168.936
-139.827
-121.99
-115.903
-115.085
-120.53
-132.081
-145.378
-160.288
-173.545
-181.365
-183.709
-180.664
-173.122
-163.464
-153.763
-144.96
-137.76
-132.699
-129.638
-128.395
-128.78
-130.031
-131.292
-132.156
-132.353
-131.768
-130.544
-128.709
-126.23
-123.217
-119.775
-115.966
-111.857
-107.443
-102.698
-97.647
-92.344
-86.849
-81.214
-75.456
-69.576
-63.567
-57.416
-51.118
-44.663
-38.036
-31.238
-24.268
-17.128
-9.833
-2.389
5.202
12.941
20.833
28.884
37.084
45.421
53.877
62.427
71.048
79.71
88.379
97.025
105.615
114.119
122.508
130.75
138.812
146.66
154.26
161.576
168.573
175.214
181.466
187.294
192.667
197.556
201.933
205.775
209.057
211.76
213.867
215.363
216.235
216.474
216.073
215.028
213.338
211.008
208.042
204.451
200.246
195.446
190.068
184.137
177.678
170.719
163.293
155.431
147.17
138.547
129.602
120.374
110.907
101.242
91.423
81.494
71.499
61.48
51.48
41.542
31.705
22.01
12.491
3.186
-5.874
-14.656
-23.133
-31.278
-39.07
-46.486
-53.509
-60.124
-66.318
-72.083
-77.414
-82.306
-86.762
-90.783
-94.377
-97.553
-100.321
-102.697
-104.693
-106.327
-107.618
-108.585
-109.248
-109.628
-109.749
-109.633
-109.305
-108.79
-108.113
-107.296
-106.363
-105.336
-104.236
-103.082
-101.894
-100.687
-99.476
-98.277
-97.104
-95.971
-94.891
-93.871
-92.922
-92.047
-91.251
-90.537
-89.902
-89.345
-88.864
-88.455
-88.116
-87.846
-87.642
-87.503
-87.429
-87.416
-87.459
-87.554
-87.697
-87.883
-88.111
-88.373
-88.663
-88.974
-89.304
-89.651
-90.016
-90.391
-90.769
-91.139
-91.498
-91.847
-92.19
-92.516
-92.804
-93.035
-93.192
-93.284
-93.335
-93.357
-93.347
-93.307
-93.243
-93.183
-93.158
-93.171
-93.181
-93.13
-92.975
-92.723
-92.444
-92.233
-92.155
-92.211
-92.355
-92.549
-92.803
-93.164
-93.609
-93.989
-94.232
-94.457
-95.038
-96.66
-99.941
-105.005
-111.707
-119.89
-129.104
-138.737
-147.848
-154.507
-156.626
-153.274
-144.368
-130.451
-112.958
-93.522
-74.092
-58.2
-50.04
-52.288
-66.329
-92.398
-128.933
-173.418
-222.606
-271.202
-312.343
-340.256
-350.218
-338.065
-301.897
-241.991
-160.083
-60.658
48.852
160.711
266.795
357.626
425.126
463.462
468.023
437.179
372.969
279.178
161.861
30.086
-106.811
-240.004
-360.359
-460.331
-534.862
-580.771
-597.603
-587.699
-554.486
-502.546
-438.066
-367.727
-297.845
-233.839
-179.611
-137.556
-109.274
-95.081
-93.683
-102.406
-117.82
-136.496
-155.264
-171.746
-184.035
-190.863
-191.975
-187.992
-180.138
-169.984
-159.255
-149.078
-140.204
-133.126
-127.825
-124.123
-121.704
-119.963
-118.205
-116.041
-113.282
-109.875
-105.958
-101.591
-96.792
-91.68
-86.375
-80.961
-75.493
-69.98
-64.395
-58.734
-53.002
-47.204
-41.35
-35.424
-29.402
-23.257
-16.965
-10.516
-3.913
2.845
9.755
16.812
24.014
31.355
38.833
46.444
54.188
62.057
70.045
78.138
86.314
94.55
102.813
111.074
119.308
127.487
135.584
143.571
151.418
159.095
166.572
173.817
180.795
187.471
193.809
199.775
205.337
210.465
215.132
219.314
222.987
226.131
228.728
230.765
232.23
233.112
233.404
233.104
232.21
230.726
228.658
226.016
222.812
219.062
214.785
210.001
204.735
199.014
192.865
186.32
179.413
172.177
164.651
156.874
148.885
140.726
132.439
124.066
115.65
107.231
98.851
90.548
82.361
74.326
66.476
58.846
51.463
44.357
37.551
31.067
24.926
19.142
13.73
8.699
4.058
-0.188
-4.037
-7.489
-10.545
-13.212
-15.496
-17.407
-18.957
-20.161
-21.035
-21.599
-21.873
-21.878
-21.638
-21.176
-20.518
-19.686
-18.708
-17.607
-16.407
-15.133
-13.81
-12.459
-11.102
-9.759
-8.449
-7.188
-5.991
-4.871
-3.839
-2.905
-2.077
-1.362
-0.768
-0.298
0.041
0.248
0.32
0.257
0.059
-0.271
-0.729
-1.311
-2.008
-2.814
-3.723
-4.728
-5.824
-7.006
-8.269
-9.609
-11.02
-12.498
-14.036
-15.626
-17.258
-18.923
-20.611
-22.318
-24.039
-25.773
-27.521
-29.283
-31.059
-32.847
-34.643
-36.442
-38.236
-40.014
-41.77
-43.497
-45.205
-46.914
-48.644
-50.407
-52.205
-54.036
-55.892
-57.764
-59.632
-61.458
-63.203
-64.828
-66.308
-67.631
-68.792
-69.784
-70.574
-71.107
-71.33
-71.234
-70.839
-70.173
-69.262
-68.118
-66.765
-65.301
-63.882
-62.655
-61.762
-61.333
-61.417
-62.128
-63.709
-66.24
-69.632
-73.594
-77.466
-80.632
-82.75
-83.314
-81.706
-77.861
-72.033
-65.061
-58.862
-55.052
-54.688
-59.197
-69.552
-85.227
-104.928
-126.016
-143.828
-154.181
-153.401
-136.877
-101.121
-45.064
30.909
123.779
227.445
335.67
441.375
535.023
607.646
652.077
664.148
644.527
595.869
520.006
415.47
280.911
122.181
-46.05
-198.55
-309.593
-366.822
-373.646
-348.348
-311.841
-276.066
-243.401
-209.135
-170.515
-130.167
-92.716
-63.217
-43.349
-31.507
-25.594
-23.164
-21.972
-20.274
-16.955
-11.684
-4.772
3.055
11.138
18.95
25.873
31.321
35.063
37.163
37.916
37.819
37.277
36.595
36.099
36.04
36.587
37.85
39.848
42.544
45.922
49.962
54.636
59.922
65.769
72.111
78.891
86.03
93.449
101.073
108.822
116.641
124.503
132.386
140.286
148.205
156.148
164.122
172.141
180.21
188.331
196.506
204.733
213.013
221.349
229.742
238.194
246.699
255.246
263.819
272.399
280.965
289.492
297.953
306.316
314.555
322.642
330.551
338.256
345.731
352.946
359.873
366.484
372.749
378.639
384.123
389.172
393.759
397.859
401.447
404.503
407.01
408.95
410.311
411.082
411.256
410.828
409.796
408.16
405.923
403.093
399.678
395.692
391.149
386.067
380.466
374.37
367.803
360.793
353.369
345.562
337.406
328.936
320.189
311.202
302.016
292.67
283.206
273.665
264.087
254.513
244.982
235.532
226.197
217.013
208.011
199.22
190.668
182.379
174.374
166.672
159.29
152.239
145.529
139.168
133.159
127.503
122.2
117.245
112.632
108.353
104.396
100.749
97.395
94.318
91.496
88.911
86.537
84.353
82.333
80.452
78.686
77.01
75.4
73.832
72.283
70.732
69.156
67.537
65.857
64.1
62.254
60.306
58.249
56.074
53.779
51.361
48.82
46.158
43.377
40.481
37.475
34.368
31.168
27.884
24.528
21.114
17.655
14.166
10.663
7.163
3.681
0.232
-3.172
-6.519
-9.8
-13.002
-16.119
-19.142
-22.06
-24.866
-27.55
-30.101
-32.511
-34.776
-36.892
-38.864
-40.698
-42.402
-43.987
-45.459
-46.824
-48.09
-49.261
-50.336
-51.321
-52.221
-53.053
-53.856
-54.664
-55.506
-56.404
-57.367
-58.394
-59.484
-60.621
-61.776
-62.918
-64.022
-65.071
-66.077
-67.051
-68.009
-68.945
-69.813
-70.576
-71.217
-71.747
-72.211
-72.659
-73.14
-73.727
-74.517
-75.631
-77.201
-79.322
-82.086
-85.563
-89.766
-94.806
-100.872
-107.981
-116.001
-124.56
-132.952
-140.518
-146.706
-150.8
-152.263
-151.057
-147.579
-143.066
-139.409
-138.367
-141.742
-151.133
-166.916
-188.228
-212.939
-237.269
-256.979
-267.468
-263.09
-239.345
-193.691
-127.4
-46.847
42.921
138.264
237.113
340.737
438.94
513.198
546.685
520.886
436.586
313.463
169.796
27.962
-98.987
-212.706
-310.567
-389.725
-448.089
-479.907
-484.298
-465.739
-429.795
-383.217
-333.294
-285.919
-244.91
-212.679
-189.966
-175.787
-168.536
-166.357
-166.588
-166.584
-164.885
-160.817
-154.423
-146.414
-137.501
-128.326
-119.794
-112.815
-107.795
-104.798
-103.619
-103.82
-105.04
-107
-109.36
-111.786
-114.068
-116.067
-117.721
-119.053
-120.054
-120.702
-120.998
-120.946
-120.565
-119.899
-118.992
-117.878
-116.612
-115.249
-113.848
-112.472
-111.161
-109.927
-108.775
-107.695
-106.668
-105.678
-104.699
-103.697
-102.643
-101.51
-100.272
-98.909
-97.398
-95.716
-93.839
-91.743
-89.412
-86.836
-84.012
-80.936
-77.613
-74.047
-70.248
-66.233
-62.015
-57.608
-53.028
-48.287
-43.403
-38.396
-33.285
-28.091
-22.838
-17.549
-12.253
-6.976
-1.746
3.408
8.462
13.388
18.16
22.754
27.146
31.315
35.239
38.902
42.284
45.371
48.15
50.611
52.744
54.543
56.006
57.129
57.915
58.366
58.487
58.286
57.771
56.952
55.843
54.456
52.808
50.914
48.792
46.461
43.942
41.255
38.422
35.465
32.405
29.265
26.067
22.83
19.577
16.324
13.092
9.895
6.749
3.669
0.665
-2.252
-5.075
-7.795
-10.409
-12.913
-15.304
-17.584
-19.753
-21.814
-23.772
-25.632
-27.4
-29.085
-30.695
-32.238
-33.724
-35.161
-36.559
-37.928
-39.277
-40.615
-41.95
-43.291
-44.648
-46.03
-47.442
-48.891
-50.383
-51.92
-53.505
-55.138
-56.82
-58.546
-60.312
-62.115
-63.95
-65.81
-67.689
-69.578
-71.468
-73.35
-75.215
-77.049
-78.842
-80.579
-82.249
-83.841
-85.344
-86.746
-88.04
-89.217
-90.273
-91.203
-92.005
-92.673
-93.203
-93.59
-93.831
-93.921
-93.857
-93.633
-93.246
-92.699
-92.002
-91.167
-90.204
-89.124
-87.937
-86.652
-85.283
-83.837
-82.312
-80.711
-79.04
-77.315
-75.577
-73.86
-72.184
-70.568
-69.019
-67.532
-66.11
-64.731
-63.348
-61.92
-60.406
-58.798
-57.13
-55.424
-53.694
-51.943
-50.133
-48.251
-46.328
-44.364
-42.369
-40.391
-38.466
-36.704
-35.285
-34.328
-33.954
-34.249
-35.235
-36.972
-39.521
-42.869
-47.047
-52.121
-57.963
-64.371
-70.985
-77.123
-82.14
-85.534
-86.831
-85.65
-82.035
-76.52
-70.17
-64.739
-62.04
-63.308
-68.999
-79.012
-92.328
-106.718
-119.226
-125.855
-121.941
-103.826
-69.587
-18.617
47.646
125.574
210.614
296.293
373.88
434.959
472.43
482.2
464.818
422.339
355.542
261.483
136.539
-16.029
-182.144
-335.193
-447.833
-505.633
-511.462
-485.097
-447.691
-410.658
-375.318
-334.596
-284.204
-226.495
-166.961
-113.125
-70.078
-39.527
-21.506
-14.622
-17.05
-26.636
-41.122
-58.182
-74.94
-88.915
-98.707
-103.598
-103.696
-99.863
-92.907
-83.915
-74.512
-65.906
-58.728
-53.302
-49.481
-46.891
-45.286
-44.258
-43.194
-41.738
-39.73
-37.121
-34.059
-30.671
-26.995
-23.109
-19.122
-15.084
-11.037
-7.002
-2.935
1.189
5.375
9.637
13.982
18.425
22.996
27.728
32.638
37.739
43.035
48.523
54.201
60.07
66.126
72.369
78.795
85.396
92.165
99.09
106.163
113.367
120.677
128.063
135.498
142.952
150.402
157.819
165.175
172.44
179.582
186.57
193.371
199.95
206.27
212.296
217.99
223.318
228.251
232.756
236.806
240.375
243.44
245.977
247.97
249.4
250.254
250.52
250.189
249.257
247.722
245.585
242.85
239.525
235.619
231.146
226.121
220.564
214.494
207.935
200.912
193.454
185.591
177.354
168.779
159.9
150.756
141.383
131.822
122.11
112.288
102.393
92.465
82.542
72.661
62.859
53.17
43.63
34.27
25.121
16.211
7.567
-0.788
-8.833
-16.547
-23.916
-30.924
-37.56
-43.814
-49.676
-55.142
-60.209
-64.875
-69.141
-73.011
-76.491
-79.587
-82.311
-84.672
-86.683
-88.359
-89.712
-90.76
-91.518
-92.004
-92.235
-92.229
-92.007
-91.589
-90.996
-90.247
-89.362
-88.361
-87.261
-86.081
-84.836
-83.543
-82.213
-80.86
-79.498
-78.14
-76.797
-75.482
-74.205
-72.974
-71.797
-70.684
-69.638
-68.662
-67.759
-66.931
-66.18
-65.508
-64.916
-64.406
-63.981
-63.644
-63.399
-63.248
-63.19
-63.22
-63.335
-63.528
-63.793
-64.119
-64.498
-64.922
-65.386
-65.89
-66.434
-67.013
-67.621
-68.251
-68.896
-69.551
-70.206
-70.843
-71.452
-72.029
-72.585
-73.15
-73.742
-74.364
-75.017
-75.697
-76.401
-77.128
-77.849
-78.506
-79.046
-79.421
-79.614
-79.651
-79.537
-79.256
-78.786
-78.069
-77.093
-75.908
-74.532
-72.964
-71.209
-69.251
-67.176
-65.209
-63.55
-62.378
-61.847
-61.967
-62.831
-64.679
-67.544
-71.342
-75.806
-80.312
-84.405
-87.948
-90.576
-91.808
-91.597
-90.026
-87.734
-86.279
-86.76
-89.817
-96.528
-107.691
-123.041
-141.662
-161.307
-178.219
-189.49
-192.396
-182.933
-157.694
-114.828
-55.899
13.198
86.098
159.052
234.163
315.216
398.388
472.605
517.676
511.716
446.598
325.8
164.433
-13.691
-186.95
-335.65
-445.661
-511.988
-539.145
-541.446
-532.156
-519.235
-503.936
-479.481
-443.385
-399.46
-352.957
-311.149
-278.139
-253.63
-237.321
-229.226
-227.953
-231.424
-237.515
-243.69
-248.565
-252.052
-253.59
-252.173
-247.703
-240.737
-232.224
-223.72
-216.018
-209.057
-202.974
-198.012
-194.188
-191.416
-189.292
-187.002
-184.085
-180.461
-176.075
-170.972
-165.17
-158.602
-151.318
-143.502
-135.278
-126.72
-117.876
-108.727
-99.299
-89.67
-79.897
-70.031
-60.101
-50.107
-40.044
-29.92
-19.735
-9.487
0.823
11.198
21.634
32.119
42.639
53.18
63.731
74.288
84.842
95.383
105.892
116.347
126.722
136.988
147.115
157.067
166.811
176.318
185.558
194.503
203.126
211.399
219.294
226.784
233.842
240.439
246.547
252.14
257.195
261.689
265.605
268.925
271.637
273.73
275.197
276.032
276.235
275.808
274.755
273.082
270.802
267.927
264.477
260.469
255.927
250.875
245.342
239.358
232.954
226.165
219.026
211.574
203.845
195.88
187.719
179.402
170.969
162.462
153.921
145.388
136.903
128.504
120.229
112.115
104.194
96.499
89.061
81.905
75.056
68.536
62.364
56.555
51.122
46.076
41.422
37.165
33.307
29.845
26.777
24.094
21.789
19.849
18.261
17.011
16.081
15.452
15.105
15.017
15.167
15.531
16.088
16.812
17.68
18.669
19.755
20.917
22.132
23.379
24.636
25.885
27.108
28.288
29.411
30.463
31.433
32.311
33.09
33.763
34.326
34.774
35.104
35.315
35.407
35.38
35.236
34.979
34.611
34.138
33.566
32.903
32.155
31.329
30.43
29.467
28.442
27.359
26.219
25.025
23.779
22.483
21.144
19.763
18.346
16.902
15.436
13.955
12.462
10.952
9.421
7.866
6.284
4.677
3.047
1.388
-0.296
-1.992
-3.694
-5.395
-7.102
-8.847
-10.653
-12.53
-14.481
-16.496
-18.558
-20.659
-22.772
-24.839
-26.806
-28.616
-30.234
-31.671
-32.933
-34.017
-34.897
-35.511
-35.823
-35.844
-35.604
-35.14
-34.498
-33.719
-32.884
-32.151
-31.685
-31.655
-32.202
-33.414
-35.367
-38.091
-41.698
-46.363
-52.05
-58.553
-65.44
-72.001
-77.631
-81.922
-84.294
-84.232
-81.693
-76.893
-70.872
-65.491
-62.285
-62.616
-67.605
-77.267
-90.761
-106.672
-121.855
-132.054
-133.256
-120.961
-91.56
-43.932
21.639
103.22
195.986
293.54
388.624
472.05
535.11
571.429
575.883
545.721
481.573
386.419
265.669
127.897
-17.198
-160.149
-291.229
-401.991
-486.089
-539.462
-560.927
-552.121
-516.823
-460.471
-390.198
-313.719
-238.722
-171.707
-117.049
-77.671
-54.723
-47.477
-53.571
-69.333
-90.081
-111.397
-130.177
-143.943
-151.256
-151.849
-146.2
-135.686
-122.512
-108.901
-96.306
-85.727
-77.608
-71.883
-68.371
-66.585
-65.717
-64.923
-63.685
-61.771
-59.166
-55.999
-52.332
-48.22
-43.781
-39.154
-34.431
-29.633
-24.75
-19.751
-14.653
-9.522
-4.401
0.682
5.728
10.753
15.775
20.806
25.871
31.017
36.283
41.686
47.22
52.857
58.581
64.394
70.297
76.288
82.348
88.471
94.672
100.992
107.473
114.127
120.934
127.847
134.821
141.843
148.934
156.121
163.406
170.789
178.281
185.93
193.801
201.902
210.164
218.443
226.595
234.531
242.197
249.573
256.621
263.273
269.446
275.066
280.092
284.474
288.127
290.913
292.678
293.348
292.965
291.657
289.551
286.717
283.197
279.017
274.234
268.922
263.146
256.943
250.329
243.35
236.093
228.701
221.33
214.066
206.912
199.81
192.714
185.617
178.53
171.464
164.406
157.344
150.296
143.316
136.46
129.759
123.215
116.798
110.476
104.249
98.151
92.236
86.546
81.109
75.946
71.084
66.559
62.392
58.584
55.113
51.955
49.097
46.532
44.264
42.286
40.587
39.148
37.95
36.976
36.207
35.626
35.207
34.925
34.758
34.692
34.715
34.816
34.981
35.199
35.456
35.744
36.054
36.377
36.703
37.024
37.332
37.622
37.889
38.13
38.341
38.518
38.663
38.774
38.853
38.903
38.927
38.926
38.906
38.87
38.822
38.763
38.693
38.611
38.516
38.409
38.286
38.145
37.987
37.812
37.62
37.414
37.194
36.96
36.71
36.439
36.138
35.8
35.415
34.977
34.481
33.925
33.308
32.633
31.905
31.122
30.28
29.357
28.326
27.175
25.89
24.468
22.925
21.278
19.554
17.804
16.072
14.4
12.829
11.371
10.022
8.786
7.669
6.708
5.949
5.397
5.045
4.864
4.788
4.754
4.672
4.397
3.799
2.742
1.078
-1.285
-4.43
-8.435
-13.308
-19.156
-26.135
-34.168
-43.026
-52.279
-61.185
-69.126
-75.625
-79.922
-81.404
-80.021
-76.005
-70.437
-65.134
-61.446
-60.698
-64.328
-72.731
-85.307
-100.66
-115.591
-126.169
-128.819
-119.118
-92.663
-46.511
18.61
97.769
184.735
272.002
359.097
452.132
548.444
643.313
720.953
747.97
707.096
588.795
393.298
154.984
-93.64
-319.286
-482.155
-574.673
-602.904
-582.888
-548.159
-514.964
-485.913
-458.233
-419.847
-368.128
-309.365
-250.401
-199.598
-160.848
-133.933
-118.219
-111.927
-112.82
-118.717
-127.066
-135.373
-141.909
-145.379
-145.079
-141.153
-134.371
-125.852
-116.967
-109.173
-103.358
-100.029
-99.335
-100.897
-104.198
-108.685
-113.674
-118.461
-122.614
-125.841
-127.967
-128.978
-128.792
-127.345
-124.662
-120.783
-115.774
-109.728
-102.762
-95.046
-86.777
-78.101
-69.125
-59.921
-50.519
-40.953
-31.253
-21.432
-11.527
-1.578
8.38
18.295
28.139
37.912
47.638
57.373
67.176
77.073
87.076
97.184
107.373
117.616
127.875
138.088
148.203
158.178
167.972
177.557
186.895
195.943
204.651
212.969
220.842
228.22
235.057
241.305
246.922
251.874
256.132
259.675
262.482
264.535
265.815
266.305
265.991
264.865
262.918
260.147
256.551
252.136
246.913
240.897
234.108
226.569
218.306
209.351
199.738
189.505
178.692
167.341
155.499
143.214
130.538
117.522
104.222
90.693
76.992
63.175
49.3
35.423
21.599
7.882
-5.677
-19.025
-32.115
-44.899
-57.331
-69.371
-80.979
-92.118
-102.755
-112.86
-122.41
-131.382
-139.759
-147.528
-154.679
-161.205
-167.104
-172.376
-177.026
-181.063
-184.498
-187.346
-189.626
-191.36
-192.573
-193.291
-193.544
-193.361
-192.774
-191.817
-190.522
-188.924
-187.055
-184.952
-182.649
-180.181
-177.582
-174.886
-172.124
-169.326
-166.523
-163.74
-161.003
-158.335
-155.756
-153.286
-150.943
-148.745
-146.705
-144.835
-143.147
-141.647
-140.341
-139.234
-138.323
-137.606
-137.078
-136.734
-136.564
-136.563
-136.719
-137.026
-137.475
-138.058
-138.765
-139.585
-140.505
-141.51
-142.585
-143.712
-144.874
-146.051
-147.227
-148.39
-149.532
-150.643
-151.715
-152.734
-153.69
-154.569
-155.361
-156.055
-156.633
-157.081
-157.393
-157.579
-157.666
-157.677
-157.619
-157.491
-157.291
-157.016
-156.665
-156.224
-155.651
-154.903
-153.949
-152.766
-151.371
-149.78
-147.986
-145.956
-143.644
-141.022
-138.124
-135.013
-131.721
-128.295
-124.771
-121.2
-117.77
-114.687
-112.126
-110.273
-109.232
-109.042
-109.872
-111.961
-115.353
-119.943
-125.326
-130.809
-135.965
-140.549
-144.158
-146.447
-147.292
-146.883
-146.257
-146.983
-150.12
-156.42
-166.534
-180.433
-197.549
-216.614
-234.708
-248.334
-254.745
-251.022
-234.208
-202.465
-154.753
-93.119
-24.031
46.377
114.567
181.321
249.771
318.133
375.317
401.752
380.761
303.937
176.336
17.113
-158.077
-332.604
-490.03
-623.373
-720.401
-776.617
-801.108
-799.535
-782.154
-755.527
-715.629
-663.153
-601.117
-534.409
-472.262
-421.033
-383.628
-360.955
-351.755
-354.048
-365.185
-381.839
-400.589
-417.771
-430.464
-437.224
-437.371
-431.015
-419.147
-402.945
-383.862
-363.833
-344.251
-325.733
-308.587
-292.657
-277.565
-263.046
-248.658
-233.755
-217.98
-201.229
-183.515
-165.059
-146.047
-126.565
-106.757
-86.787
-66.772
-46.816
-26.995
-7.341
12.099
31.271
50.131
68.633
86.751
104.471
121.785
138.69
155.173
171.216
186.803
201.912
216.528
230.644
244.257
257.37
269.987
282.113
293.754
304.916
315.606
325.824
335.567
344.829
353.607
361.904
369.722
377.066
383.938
390.339
396.27
401.734
406.73
411.254
415.303
418.871
421.953
424.547
426.648
428.256
429.366
429.976
430.085
429.69
428.79
427.386
425.475
423.057
420.135
416.711
412.789
408.376
403.479
398.109
392.276
385.995
379.282
372.156
364.637
356.747
348.511
339.955
331.107
321.998
312.656
303.115
293.407
283.566
273.626
263.619
253.579
243.541
233.538
223.602
213.767
204.064
194.522
185.173
176.043
167.159
158.545
150.225
142.218
134.544
127.218
120.257
113.67
107.468
101.655
96.236
91.21
86.576
82.327
78.455
74.951
71.804
69.001
66.527
64.369
62.509
60.933
59.624
58.564
57.736
57.121
56.699
56.453
56.364
56.413
56.585
56.863
57.231
57.674
58.18
58.734
59.323
59.933
60.55
61.164
61.762
62.337
62.878
63.38
63.836
64.246
64.607
64.916
65.173
65.375
65.521
65.609
65.636
65.595
65.481
65.288
65.014
64.655
64.209
63.674
63.049
62.336
61.539
60.657
59.686
58.621
57.45
56.168
54.771
53.259
51.635
49.903
48.07
46.15
44.163
42.121
40.025
37.856
35.587
33.2
30.691
28.063
25.326
22.501
19.621
16.745
13.936
11.236
8.664
6.21
3.848
1.564
-0.644
-2.749
-4.693
-6.424
-7.905
-9.103
-10.007
-10.646
-11.081
-11.427
-11.833
-12.41
-13.232
-14.365
-15.822
-17.57
-19.629
-22.05
-24.809
-27.859
-30.981
-33.675
-35.456
-35.88
-34.359
-30.503
-24.355
-16.166
-6.913
1.674
7.962
10.202
6.769
-2.652
-17.16
-35.296
-54.171
-69.504
-76.846
-71.381
-48.59
-8.171
46.27
113.264
190.621
276.822
374.316
473.308
555.405
604.732
602.365
545.129
448.271
326.03
195.42
67.74
-57.102
-176.05
-283.516
-373.017
-436.189
-468.72
-470.586
-444.86
-397.074
-333.298
-260.904
-187.572
-119.443
-61.817
-18.525
9.062
21.041
18.694
5.356
-14.824
-38.093
-60.47
-78.816
-91.582
-97.88
-97.628
-91.943
-82.34
-70.459
-58.372
-47.537
-38.543
-31.771
-27.144
-24.221
-22.624
-21.773
-20.887
-19.552
-17.628
-15.06
-11.994
-8.554
-4.756
-0.712
3.446
7.669
11.911
16.165
20.463
24.78
29.084
33.361
37.59
41.775
45.937
50.081
54.223
58.381
62.558
66.76
70.991
75.241
79.507
83.795
88.109
92.461
96.861
101.314
105.825
110.395
115.017
119.682
124.374
129.075
133.77
138.442
143.078
147.662
152.176
156.6
160.913
165.095
169.121
172.966
176.603
180.006
183.15
186.012
188.57
190.805
192.694
194.221
195.369
196.122
196.467
196.391
195.883
194.935
193.54
191.694
189.395
186.643
183.44
179.791
175.704
171.187
166.254
160.919
155.198
149.11
142.677
135.921
128.868
121.543
113.973
106.187
98.212
90.078
81.815
73.449
65.011
56.528
48.028
39.535
31.076
22.673
14.347
6.12
-1.992
-9.97
-17.802
-25.474
-32.974
-40.294
-47.426
-54.363
-61.103
-67.644
-73.987
-80.134
-86.089
-91.86
-97.454
-102.881
-108.15
-113.272
-118.257
-123.118
-127.865
-132.509
-137.063
-141.538
-145.943
-150.29
-154.587
-158.843
-163.064
-167.255
-171.419
-175.556
-179.667
-183.75
-187.8
-191.812
-195.782
-199.7
-203.56
-207.352
-211.065
-214.687
-218.203
-221.599
-224.858
-227.964
-230.9
-233.646
-236.187
-238.505
-240.587
-242.42
-243.993
-245.293
-246.31
-247.033
-247.454
-247.562
-247.346
-246.795
-245.901
-244.661
-243.073
-241.139
-238.867
-236.262
-233.338
-230.108
-226.583
-222.775
-218.694
-214.347
-209.746
-204.912
-199.867
-194.648
-189.289
-183.817
-178.264
-172.65
-166.983
-161.265
-155.487
-149.621
-143.656
-137.577
-131.377
-125.066
-118.645
-112.123
-105.512
-98.804
-91.995
-85.1
-78.139
-71.16
-64.265
-57.538
-51.097
-45.095
-39.635
-34.861
-30.929
-27.942
-26.034
-25.308
-25.784
-27.556
-30.757
-35.297
-40.978
-47.442
-54.023
-60.248
-65.781
-70.012
-72.449
-73.009
-71.798
-69.48
-67.254
-65.752
-65.374
-66.928
-70.692
-76.237
-82.767
-88.343
-90.211
-86.526
-75.686
-55.105
-22.729
22.124
79.63
146.511
215.869
284.616
350.887
413.552
476.324
532.808
568.063
568.88
519.254
418.642
284.198
132.137
-18.692
-157.137
-284.612
-398.463
-494.383
-568.145
-612.523
-624.254
-605.208
-559.614
-493.7
-415.391
-333.01
-253.358
-182.592
-126.442
-87.947
-67.854
-65.552
-77.966
-100.498
-129.265
-159.982
-187.841
-209.904
-224.586
-231.119
-230.436
-224.286
-214.112
-201.899
-190.037
-179.835
-172
-166.856
-163.895
