Name,Aleksandre Beruashvili
Date of Birth,"Dec 20, 1998"
Recorded Date,2024-06-03 14:45:07 +0400
Classification,High Heart Rate
Symptoms,
Software Version,1.90
Device,"Watch7,2"
Sample Rate,512 hertz


Lead,Lead I
Unit,µV

-43.369
-40.015
-35.656
-31.361
-27.959
-25.964
-26.077
-28.75
-33.708
-40.314
-47.118
-51.677
-52.019
-46.454
-32.977
-10.084
22.82
65.583
116.629
172.864
231.318
288.854
341.276
384.34
414.439
428.388
425.355
407.291
374.574
327.485
266.557
190.511
104.502
18.735
-57.09
-111.698
-142.257
-155.193
-156.712
-154.594
-152.174
-146.558
-137.205
-124.618
-110.562
-98.776
-90.777
-86.359
-84.979
-85.499
-86.926
-88.466
-89.224
-88.71
-86.953
-84.239
-80.99
-77.57
-74.284
-71.497
-69.584
-68.747
-68.988
-70.166
-72.067
-74.514
-77.362
-80.45
-83.598
-86.618
-89.37
-91.777
-93.802
-95.426
-96.63
-97.389
-97.69
-97.551
-97.004
-96.082
-94.818
-93.233
-91.357
-89.232
-86.909
-84.447
-81.89
-79.261
-76.576
-73.844
-71.068
-68.255
-65.4
-62.488
-59.505
-56.441
-53.293
-50.059
-46.74
-43.327
-39.815
-36.198
-32.476
-28.652
-24.731
-20.719
-16.624
-12.455
-8.227
-3.957
0.34
4.651
8.963
13.26
17.53
21.757
25.926
30.024
34.036
37.946
41.739
45.4
48.912
52.263
55.438
58.424
61.209
63.78
66.128
68.242
70.114
71.735
73.101
74.204
75.041
75.611
75.91
75.939
75.7
75.195
74.429
73.408
72.138
70.628
68.886
66.925
64.754
62.387
59.837
57.116
54.238
51.219
48.073
44.817
41.465
38.034
34.54
30.999
27.427
23.84
20.254
16.683
13.143
9.646
6.208
2.841
-0.442
-3.627
-6.704
-9.661
-12.487
-15.173
-17.71
-20.089
-22.305
-24.35
-26.219
-27.906
-29.408
-30.72
-31.838
-32.758
-33.477
-33.992
-34.302
-34.404
-34.298
-33.984
-33.461
-32.732
-31.797
-30.657
-29.313
-27.769
-26.027
-24.09
-21.962
-19.648
-17.152
-14.482
-11.646
-8.652
-5.51
-2.227
1.185
4.716
8.356
12.092
15.911
19.802
23.75
27.739
31.749
35.762
39.757
43.715
47.614
51.434
55.156
58.76
62.229
65.551
68.71
71.689
74.473
77.042
79.379
81.467
83.29
84.833
86.084
87.033
87.675
88.01
88.036
87.752
87.151
86.217
84.941
83.316
81.343
79.031
76.401
73.474
70.288
66.887
63.315
59.622
55.853
52.04
48.212
44.381
40.57
36.828
33.197
29.702
26.337
23.064
19.847
16.661
13.496
10.318
7.043
3.602
-0.017
-3.863
-7.95
-12.249
-16.896
-22.067
-27.734
-33.982
-40.921
-48.072
-54.899
-61.235
-66.335
-70.415
-75.293
-80.482
-84.793
-86.378
-79.716
-64.623
-46.784
-32.828
-34.375
-56.196
-91.043
-128.086
-150.291
-145.05
-112.41
-58.231
5.324
67.189
123.545
174.02
220.741
264.115
301.257
328.293
341.292
338.156
318.455
282.702
233.073
172.693
104.961
33.99
-36.227
-101.968
-159.004
-204.663
-238.88
-262.08
-274.539
-274.811
-260.007
-230.654
-192.656
-156.729
-133.584
-127.907
-136.959
-151.642
-163.055
-167.09
-164.081
-158.214
-153.128
-149.853
-148.018
-146.232
-143.869
-141.394
-139.427
-138.553
-138.907
-140.255
-142.365
-145.027
-148.025
-151.179
-154.317
-157.282
-159.989
-162.387
-164.426
-166.086
-167.348
-168.202
-168.649
-168.699
-168.366
-167.684
-166.689
-165.414
-163.901
-162.191
-160.325
-158.352
-156.306
-154.204
-152.062
-149.884
-147.67
-145.423
-143.138
-140.805
-138.416
-135.963
-133.441
-130.852
-128.19
-125.455
-122.643
-119.751
-116.781
-113.74
-110.637
-107.482
-104.287
-101.067
-97.839
-94.622
-91.435
-88.295
-85.219
-82.224
-79.326
-76.545
-73.898
-71.404
-69.081
-66.947
-65.02
-63.32
-61.863
-60.666
-59.741
-59.104
-58.764
-58.733
-59.019
-59.629
-60.567
-61.836
-63.439
-65.375
-67.642
-70.236
-73.151
-76.378
-79.908
-83.73
-87.831
-92.197
-96.812
-101.658
-106.72
-111.977
-117.411
-123.001
-128.725
-134.563
-140.492
-146.489
-152.534
-158.601
-164.67
-170.719
-176.725
-182.668
-188.527
-194.285
-199.922
-205.422
-210.769
-215.948
-220.946
-225.752
-230.353
-234.74
-238.905
-242.841
-246.541
-250.001
-253.218
-256.188
-258.909
-261.381
-263.604
-265.579
-267.308
-268.793
-270.035
-271.038
-271.805
-272.342
-272.65
-272.735
-272.602
-272.255
-271.701
-270.946
-269.996
-268.857
-267.535
-266.037
-264.369
-262.538
-260.551
-258.412
-256.13
-253.711
-251.164
-248.498
-245.722
-242.843
-239.871
-236.816
-233.689
-230.5
-227.257
-223.972
-220.655
-217.32
-213.979
-210.645
-207.334
-204.061
-200.843
-197.699
-194.643
-191.691
-188.857
-186.153
-183.591
-181.181
-178.93
-176.847
-174.941
-173.222
-171.699
-170.38
-169.269
-168.367
-167.674
-167.188
-166.907
-166.824
-166.927
-167.209
-167.668
-168.308
-169.141
-170.166
-171.372
-172.745
-174.272
-175.938
-177.718
-179.573
-181.443
-183.272
-185.019
-186.669
-188.207
-189.601
-190.817
-191.805
-192.519
-192.954
-193.094
-192.897
-192.338
-191.385
-189.996
-188.226
-186.179
-183.942
-181.638
-179.335
-177.038
-174.836
-172.913
-171.394
-170.025
-168.385
-166.114
-162.718
-158.926
-155.39
-150.893
-145.207
-136.414
-122.85
-108.711
-96.737
-90.777
-95.485
-106.522
-119.759
-131.363
-134.851
-130.202
-117.905
-96.384
-65.662
-24.39
28.002
89.591
156.207
222.106
283.556
337.722
383.285
422.092
450.863
463.604
456.707
424.331
368.18
296.25
214.095
131.253
54.91
-10.634
-58.124
-84.898
-89.588
-70.849
-32.376
21.411
80.713
129.298
154.103
148.046
116.816
79.332
56.843
64.633
106.444
175.124
255.708
334.933
403.822
454.149
485.305
497.21
490.754
475.122
458.526
451.982
464.815
496.453
541.951
588.801
625.796
648.649
657.016
659.335
662.711
669.895
682.755
697.285
710.526
722.532
732.717
742.622
753.634
765.559
778.472
792.143
805.779
818.674
830.247
839.769
846.685
850.839
852.234
851.172
848.737
846.179
844.54
845.202
849.289
857.533
870.782
888.112
906.271
922.23
932.957
938.438
943.174
948.296
950.6
940.682
902.365
825.543
709.579
561.722
396.278
226.266
59.829
-95.295
-230.378
-339.72
-420.145
-474.723
-514.15
-545.867
-573.031
-594.847
-606.121
-605.465
-595.243
-578.526
-559.125
-538.902
-518.355
-498.678
-480.855
-465.363
-452.335
-441.337
-432.017
-424.304
-417.787
-411.498
-404.488
-396.294
-386.947
-376.922
-366.727
-356.699
-347.362
-339.516
-333.847
-330.702
-330.098
-331.732
-335.179
-340.045
-345.856
-352.015
-357.969
-363.291
-367.637
-370.777
-372.587
-372.972
-371.896
-369.407
-365.551
-360.378
-353.979
-346.445
-337.892
-328.475
-318.336
-307.621
-296.498
-285.122
-273.651
-262.253
-251.055
-240.16
-229.64
-219.517
-209.794
-200.436
-191.423
-182.791
-174.458
-166.234
-157.947
-149.386
-140.5
-131.503
-122.446
-113.168
-103.752
-94.416
-85.418
-77.229
-69.833
-62.576
-55.089
-47.277
-38.841
-29.509
-18.882
-6.184
8.664
24.948
42.256
60.329
78.83
97.614
116.311
134.189
151.104
167.475
183.523
199.458
215.439
231.433
247.636
264.422
281.842
299.696
317.811
336.049
354.429
373.111
392.17
411.634
431.582
452.174
473.662
496.239
519.878
544.444
569.735
595.552
621.905
648.826
676.111
703.51
730.979
758.418
785.812
813.267
840.378
866.667
892.13
916.714
940.035
961.895
981.866
999.158
1013.748
1025.592
1033.962
1038.571
1039.738
1037.809
1033.795
1029.277
1024.999
1021.849
1021.414
1024.608
1031.719
1042.72
1056.611
1071.846
1087.576
1102.878
1116.392
1127.249
1134.878
1139.007
1140.145
1139.109
1136.368
1132.341
1127.58
1122.555
1117.72
1113.369
1109.558
1106.239
1103.199
1100.18
1096.745
1092.075
1085.528
1076.727
1065.151
1050.488
1033.159
1013.994
994.586
977.478
964.79
958.293
960.042
971.63
993.673
1026.008
1067.067
1113.723
1162.807
1210.881
1253.85
1287.826
1309.301
1315.339
1304.216
1275.788
1230.952
1171.791
1101.386
1023.408
942.386
863.08
790.165
726.798
673.781
631.195
599.573
581.399
579.549
593.232
616.286
637.288
644.871
633.777
605.934
569.415
532.996
501.249
474.348
449.201
423.043
395.352
367.498
341.965
319.871
300.87
283.958
267.676
251.354
234.963
218.35
201.363
183.961
166.188
148.384
131.07
114.508
98.763
83.848
69.726
56.415
43.973
32.397
21.63
11.644
2.442
-5.944
-13.467
-20.12
-25.943
-31.001
-35.349
-39.02
-42.036
-44.413
-46.167
-47.326
-47.909
-47.93
-47.409
-46.371
-44.847
-42.877
-40.501
-37.749
-34.647
-31.217
-27.48
-23.463
-19.194
-14.703
-10.021
-5.181
-0.218
4.83
9.925
15.034
20.122
25.16
30.118
34.964
39.669
44.207
48.548
52.665
56.533
60.124
63.416
66.386
69.016
71.286
73.182
74.689
75.799
76.502
76.792
76.665
76.119
75.156
73.777
71.987
69.794
67.204
64.228
60.88
57.173
53.123
48.747
44.065
39.096
33.859
28.378
22.675
16.772
10.692
4.46
-1.899
-8.36
-14.899
-21.489
-28.108
-34.73
-41.333
-47.895
-54.396
-60.816
-67.139
-73.349
-79.431
-85.373
-91.166
-96.8
-102.269
-107.568
-112.693
-117.641
-122.413
-127.01
-131.434
-135.69
-139.783
-143.721
-147.51
-151.16
-154.681
-158.084
-161.378
-164.577
-167.692
-170.736
-173.724
-176.668
-179.582
-182.479
-185.372
-188.273
-191.193
-194.142
-197.128
-200.158
-203.236
-206.368
-209.553
-212.793
-216.085
-219.431
-222.827
-226.274
-229.767
-233.303
-236.877
-240.483
-244.114
-247.757
-251.4
-255.025
-258.618
-262.165
-265.652
-269.065
-272.392
-275.618
-278.737
-281.737
-284.607
-287.331
-289.885
-292.248
-294.416
-296.39
-298.178
-299.8
-301.271
-302.611
-303.851
-305.014
-306.113
-307.149
-308.1
-308.941
-309.666
-310.285
-310.821
-311.299
-311.711
-312.052
-312.31
-312.456
-312.468
-312.312
-311.924
-311.271
-310.361
-309.231
-307.972
-306.69
-305.455
-304.321
-303.329
-302.512
-301.936
-301.662
-301.733
-302.216
-303.176
-304.687
-306.868
-309.789
-313.443
-317.795
-322.737
-328.129
-333.873
-339.873
-346.037
-352.302
-358.576
-364.777
-370.87
-376.804
-382.528
-387.999
-393.111
-397.782
-402.02
-405.862
-409.41
-412.825
-416.231
-419.731
-423.459
-427.571
-432.128
-437.097
-442.286
-447.309
-451.801
-455.536
-458.251
-459.638
-459.712
-458.706
-457.164
-456.194
-456.668
-459.052
-463.954
-471.739
-481.95
-493.688
-505.236
-513.835
-517.272
-513.733
-501.086
-477.855
-443.608
-398.73
-345.118
-285.955
-224.177
-163.178
-107.109
-59.735
-24.454
-3.838
1.006
-10.286
-37.645
-79.404
-132.644
-194.009
-259.314
-324.493
-385.918
-439.457
-482.304
-514.347
-535.993
-547.284
-546.569
-530.592
-499.417
-459.002
-420.498
-395.145
-388.115
-396.587
-411.029
-422.2
-425.768
-422.191
-415.88
-410.519
-407.117
-405.187
-403.185
-400.434
-397.374
-394.611
-392.782
-392.068
-392.273
-393.2
-394.645
-396.387
-398.238
-400.035
-401.623
-402.936
-403.946
-404.599
-404.87
-404.74
-404.192
-403.228
-401.852
-400.062
-397.87
-395.307
-392.402
-389.196
-385.735
-382.054
-378.194
-374.185
-370.041
-365.776
-361.394
-356.894
-352.275
-347.532
-342.655
-337.641
-332.485
-327.181
-321.726
-316.116
-310.347
-304.414
-298.313
-292.042
-285.606
-279.009
-272.262
-265.374
-258.359
-251.232
-244.01
-236.713
-229.356
-221.959
-214.538
-207.113
-199.704
-192.335
-185.026
-177.802
-170.687
-163.705
-156.883
-150.245
-143.817
-137.622
-131.681
-126.018
-120.652
-115.604
-110.891
-106.53
-102.536
-98.923
-95.703
-92.885
-90.477
-88.483
-86.907
-85.748
-85.004
-84.673
-84.746
-85.216
-86.073
-87.302
-88.89
-90.819
-93.07
-95.623
-98.455
-101.54
-104.853
-108.367
-112.053
-115.883
-119.828
-123.857
-127.943
-132.055
-136.166
-140.248
-144.273
-148.215
-152.05
-155.754
-159.305
-162.683
-165.869
-168.848
-171.605
-174.127
-176.404
-178.428
-180.192
-181.692
-182.924
-183.89
-184.591
-185.031
-185.216
-185.154
-184.856
-184.332
-183.596
-182.663
-181.548
-180.267
-178.838
-177.278
-175.606
-173.841
-172
-170.103
-168.168
-166.213
-164.255
-162.31
-160.394
-158.522
-156.707
-154.961
-153.296
-151.722
-150.249
-148.884
-147.634
-146.506
-145.502
-144.627
-143.879
-143.259
-142.764
-142.39
-142.132
-141.985
-141.939
-141.988
-142.121
-142.33
-142.604
-142.932
-143.301
-143.701
-144.12
-144.545
-144.966
-145.371
-145.75
-146.094
-146.393
-146.642
-146.832
-146.959
-147.015
-146.996
-146.897
-146.715
-146.449
-146.097
-145.66
-145.14
-144.543
-143.878
-143.155
-142.382
-141.57
-140.732
-139.879
-139.026
-138.181
-137.354
-136.559
-135.809
-135.118
-134.499
-133.965
-133.529
-133.203
-133
-132.93
-133.002
-133.221
-133.593
-134.128
-134.837
-135.734
-136.838
-138.161
-139.71
-141.493
-143.514
-145.769
-148.247
-150.924
-153.762
-156.73
-159.792
-162.908
-166.042
-169.146
-172.18
-175.108
-177.884
-180.48
-182.872
-185.041
-186.974
-188.67
-190.135
-191.417
-192.608
-193.805
-195.126
-196.672
-198.568
-200.99
-204.02
-207.628
-211.681
-215.89
-219.986
-223.813
-227.155
-229.682
-231.301
-232.195
-232.838
-234.128
-236.83
-241.269
-247.694
-256.399
-267.293
-279.667
-292.122
-302.406
-308.195
-307.817
-299.815
-282.705
-255.389
-217.567
-170.01
-114.815
-54.948
6.613
66.716
121.835
168.06
201.603
219.663
220.39
204.244
173.76
130.359
75.665
11.53
-61.779
-138.847
-211.211
-272.811
-315.981
-338.752
-343.788
-331.55
-307.441
-278.548
-252.643
-239.878
-243.868
-260.997
-282.906
-299.747
-306.641
-304.71
-298.613
-292.536
-287.965
-284.095
-279.109
-272.484
-264.916
-257.3
-250.557
-244.962
-240.377
-236.795
-234.184
-232.477
-231.607
-231.452
-231.897
-232.907
-234.451
-236.467
-238.851
-241.442
-244.093
-246.684
-249.124
-251.349
-253.288
-254.875
-256.076
-256.881
-257.31
-257.381
-257.091
-256.418
-255.343
-253.865
-252.026
-249.889
-247.503
-244.92
-242.206
-239.439
-236.734
-234.188
-231.84
-229.701
-227.752
-225.974
-224.368
-222.941
-221.694
-220.615
-219.666
-218.78
-217.888
-216.879
-215.579
-213.772
-211.184
-207.553
-202.695
-196.468
-188.752
-179.445
-168.439
-155.624
-140.917
-124.224
-105.447
-84.528
-61.451
-36.269
-9.147
19.679
49.906
81.203
113.293
145.926
178.837
211.771
244.471
276.661
308.067
338.386
367.247
394.302
419.267
441.927
462.182
480.006
495.422
508.504
519.326
527.963
534.525
539.128
541.888
542.951
542.493
540.734
537.983
534.564
530.741
526.731
522.686
518.702
514.863
511.219
507.787
504.575
501.579
498.79
496.214
493.846
491.651
489.566
487.477
485.25
482.793
480.047
476.975
473.57
469.83
465.766
461.421
456.85
452.101
447.217
442.23
437.163
432.058
426.964
421.938
417.048
412.339
407.844
403.586
399.579
395.83
392.338
389.091
386.064
383.239
380.6
378.136
375.84
373.698
371.693
369.811
368.035
366.351
364.748
363.214
361.738
360.314
358.935
357.597
356.301
355.044
353.822
352.632
351.47
350.333
349.219
348.127
347.053
345.997
344.959
343.94
342.941
341.964
341.01
340.079
339.173
338.293
337.439
336.611
335.811
335.038
334.29
333.569
332.871
332.195
331.539
330.898
330.266
329.636
328.997
328.341
327.657
326.935
326.161
325.326
324.42
323.435
322.365
321.2
319.933
318.554
317.052
315.418
313.641
311.714
309.628
307.377
304.958
302.369
299.613
296.689
293.599
290.334
286.882
283.231
279.38
275.333
271.098
266.691
262.131
257.444
252.674
247.864
243.059
238.298
233.608
229.011
224.528
220.194
216.06
212.168
208.532
205.139
201.97
199.008
196.246
193.663
191.185
188.699
186.096
183.278
180.168
176.746
172.953
168.658
163.825
158.515
152.926
147.472
142.526
138.277
134.993
133.014
132.41
133.118
134.76
136.362
137.134
136.604
134.121
129.282
122.442
114.29
106.147
100.34
98.893
103.565
116.648
139.865
173.661
217.743
270.512
328.792
389.379
448.697
501.741
543.537
569.971
578.409
568.796
542.461
500.214
440.601
362.308
268.431
167.396
74.026
2.654
-40.928
-59.048
-60.141
-50.603
-31.159
-0.78
39.537
81.01
111.784
124.501
118.526
102.094
85.405
73.983
68.588
65.562
61.334
55.095
48.137
43.09
41.166
41.989
44.495
47.05
48.89
49.969
50.126
49.284
47.434
44.599
41.087
37.413
33.888
30.632
27.717
25.147
22.952
21.198
19.881
18.948
18.355
18.084
18.132
18.514
19.231
20.249
21.529
23.026
24.692
26.497
28.424
30.458
32.586
34.801
37.095
39.465
41.917
44.453
47.071
49.769
52.543
55.392
58.324
61.344
64.461
67.676
70.987
74.388
77.875
81.439
85.072
88.764
92.498
96.263
100.045
103.835
107.621
111.391
115.129
118.821
122.452
126.008
129.472
132.829
136.061
139.152
142.085
144.848
147.423
149.797
151.956
153.886
155.573
157.007
158.175
159.067
159.672
159.983
159.992
159.694
159.083
158.158
156.916
155.356
153.48
151.289
148.787
145.979
142.871
139.471
135.786
131.828
127.608
123.138
118.432
113.505
108.371
103.048
97.552
91.9
86.111
80.202
74.192
68.101
61.947
55.748
49.525
43.295
37.077
30.888
24.745
18.665
12.664
6.757
0.958
-4.718
-10.26
-15.653
-20.888
-25.954
-30.842
-35.544
-40.052
-44.362
-48.469
-52.368
-56.057
-59.535
-62.801
-65.854
-68.697
-71.331
-73.759
-75.985
-78.014
-79.852
-81.506
-82.981
-84.287
-85.429
-86.416
-87.255
-87.956
-88.525
-88.972
-89.305
-89.534
-89.666
-89.711
-89.676
-89.571
-89.404
-89.181
-88.909
-88.594
-88.242
-87.857
-87.445
-87.009
-86.554
-86.082
-85.597
-85.101
-84.594
-84.079
-83.553
-83.017
-82.469
-81.907
-81.328
-80.73
-80.111
-79.469
-78.801
-78.108
-77.386
-76.633
-75.85
-75.032
-74.18
-73.292
-72.368
-71.407
-70.41
-69.381
-68.324
-67.245
-66.152
-65.05
-63.946
-62.85
-61.769
-60.708
-59.673
-58.669
-57.701
-56.777
-55.908
-55.102
-54.369
-53.72
-53.166
-52.716
-52.38
-52.164
-52.071
-52.105
-52.27
-52.572
-53.024
-53.642
-54.44
-55.423
-56.596
-57.96
-59.51
-61.233
-63.111
-65.112
-67.204
-69.359
-71.549
-73.749
-75.938
-78.098
-80.204
-82.218
-84.112
-85.873
-87.497
-88.996
-90.374
-91.618
-92.746
-93.814
-94.896
-96.085
-97.467
-99.1
-101.052
-103.417
-106.249
-109.527
-113.11
-116.716
-120.015
-122.737
-124.617
-125.35
-124.797
-123.098
-120.685
-118.36
-117.031
-117.35
-119.912
-125.382
-133.91
-144.856
-156.883
-167.859
-175.357
-177.303
-171.679
-156.263
-129.534
-91.351
-42.78
13.865
75.265
137.847
197.724
250.251
290.904
316.519
324.938
315.037
287.551
244.344
188.029
122.95
54.374
-13.265
-75.34
-128.043
-170.472
-201.285
-219.016
-222.981
-211.314
-186.752
-156.942
-130.008
-114.766
-113.056
-119.455
-128.78
-134.992
-136.319
-136.097
-135.587
-135.813
-136.984
-137.098
-135.69
-133.321
-130.28
-127.38
-125.285
-124.018
-123.617
-124.124
-125.34
-127.094
-129.292
-131.762
-134.347
-136.963
-139.493
-141.845
-143.985
-145.852
-147.392
-148.574
-149.366
-149.758
-149.761
-149.382
-148.634
-147.543
-146.129
-144.421
-142.454
-140.262
-137.888
-135.367
-132.719
-129.967
-127.122
-124.192
-121.186
-118.103
-114.932
-111.67
-108.313
-104.856
-101.302
-97.649
-93.895
-90.036
-86.07
-81.998
-77.822
-73.548
-69.184
-64.738
-60.222
-55.648
-51.033
-46.395
-41.747
-37.104
-32.48
-27.892
-23.354
-18.884
-14.497
-10.208
-6.034
-1.991
1.902
5.63
9.178
12.529
15.671
18.589
21.27
23.701
25.873
27.773
29.394
30.727
31.764
32.5
32.929
33.05
32.859
32.358
31.548
30.432
29.014
27.303
25.305
23.03
20.49
17.695
14.661
11.4
7.931
4.268
0.43
-3.565
-7.696
-11.945
-16.291
-20.713
-25.191
-29.703
-34.229
-38.748
-43.24
-47.685
-52.063
-56.355
-60.544
-64.61
-68.537
-72.309
-75.912
-79.33
-82.553
-85.568
-88.365
-90.937
-93.276
-95.377
-97.235
-98.847
-100.214
-101.334
-102.209
-102.842
-103.237
-103.399
-103.334
-103.051
-102.557
-101.862
-100.975
-99.909
-98.674
-97.284
-95.75
-94.086
-92.306
-90.424
-88.454
-86.411
-84.309
-82.162
-79.984
-77.791
-75.594
-73.409
-71.247
-69.121
-67.042
-65.021
-63.067
-61.192
-59.401
-57.702
-56.102
-54.607
-53.221
-51.947
-50.789
-49.748
-48.826
-48.021
-47.333
-46.76
-46.298
-45.942
-45.688
-45.53
-45.461
-45.475
-45.562
-45.715
-45.924
-46.18
-46.474
-46.795
-47.132
-47.473
-47.81
-48.13
-48.423
-48.679
-48.889
-49.042
-49.131
-49.148
-49.085
-48.937
-48.696
-48.356
-47.915
-47.368
-46.712
-45.946
-45.069
-44.084
-42.996
-41.812
-40.536
-39.176
-37.741
-36.241
-34.685
-33.083
-31.44
-29.766
-28.072
-26.371
-24.676
-23.002
-21.361
-19.769
-18.24
-16.788
-15.428
-14.166
-13.007
-11.958
-11.031
-10.238
-9.602
-9.137
-8.851
-8.753
-8.848
-9.135
-9.607
-10.244
-11.009
-11.878
-12.828
-13.838
-14.901
-15.989
-17.069
-18.121
-19.112
-20.018
-20.824
-21.508
-22.063
-22.514
-22.899
-23.262
-23.667
-24.162
-24.799
-25.655
-26.792
-28.293
-30.221
-32.629
-35.622
-39.22
-43.349
-47.866
-52.447
-56.716
-60.403
-63.142
-64.478
-64.332
-62.819
-60.3
-57.699
-55.764
-54.964
-56.033
-59.539
-65.272
-72.574
-80.016
-85.184
-86.041
-80.791
-67.209
-43.559
-9.134
35.856
89.71
149.38
211.723
272.929
328.451
373.967
405.467
420.913
419.669
400.718
364.808
312.275
244.306
168.027
90.153
18.053
-40.409
-85.021
-117.22
-138.969
-152.917
-158.057
-152.184
-134.791
-110.326
-84.427
-63.504
-52.873
-49.577
-50.362
-52.35
-51.471
-49.377
-47.473
-45.342
-44.021
-42.616
-40.218
-37.424
-34.445
-31.646
-29.631
-28.61
-28.596
-29.574
-31.402
-33.831
-36.65
-39.704
-42.809
-45.79
-48.541
-50.953
-52.956
-54.545
-55.705
-56.422
-56.699
-56.541
-55.96
-54.994
-53.678
-52.041
-50.128
-47.977
-45.631
-43.143
-40.548
-37.867
-35.117
-32.303
-29.427
-26.489
-23.485
-20.407
-17.247
-13.999
-10.659
-7.228
-3.703
-0.081
3.639
7.462
11.388
15.41
19.522
23.716
27.982
32.31
36.685
41.091
45.513
49.937
54.349
58.735
63.082
67.372
71.591
75.722
79.749
83.656
87.424
91.036
94.475
97.725
100.772
103.6
106.197
108.55
110.647
112.479
114.037
115.313
116.3
116.993
117.387
117.479
117.269
116.755
115.939
114.824
113.413
111.711
109.725
107.463
104.934
102.147
99.115
95.851
92.368
88.68
84.804
80.757
76.557
72.22
67.767
63.215
58.585
53.894
49.162
44.406
39.647
34.9
30.183
25.514
20.909
16.383
11.951
7.627
3.425
-0.644
-4.566
-8.333
-11.934
-15.36
-18.605
-21.661
-24.523
-27.186
-29.648
-31.907
-33.961
-35.81
-37.456
-38.9
-40.145
-41.196
-42.057
-42.733
-43.229
-43.552
-43.71
-43.71
-43.559
-43.267
-42.842
-42.294
-41.632
-40.867
-40.007
-39.064
-38.048
-36.97
-35.839
-34.666
-33.461
-32.235
-30.998
-29.76
-28.529
-27.316
-26.128
-24.974
-23.861
-22.795
-21.783
-20.83
-19.942
-19.122
-18.374
-17.703
-17.11
-16.598
-16.168
-15.821
-15.555
-15.37
-15.264
-15.233
-15.274
-15.381
-15.551
-15.776
-16.052
-16.369
-16.722
-17.101
-17.499
-17.906
-18.312
-18.708
-19.084
-19.431
-19.739
-19.998
-20.201
-20.338
-20.402
-20.387
-20.284
-20.089
-19.796
-19.399
-18.893
-18.277
-17.547
-16.704
-15.745
-14.675
-13.496
-12.217
-10.848
-9.393
-7.862
-6.264
-4.611
-2.914
-1.189
0.562
2.331
4.097
5.836
7.529
9.149
10.694
12.161
13.524
14.754
15.87
16.888
17.821
18.689
19.455
20.055
20.492
20.798
20.841
20.466
19.761
18.72
17.327
15.925
13.693
9.824
5.539
1.226
-0.904
1.812
6.495
11.239
13.188
8.407
0.426
-7.766
-14.124
-15.298
-13.733
-11.908
-10.446
-10.908
-12.496
-14.179
-16.224
-18.543
-21.292
-24.8
-28.96
-33.61
-38.633
-43.732
-48.58
-52.908
-56.411
-58.705
-59.566
-59.087
-57.636
-55.961
-54.896
-54.943
-56.538
-60.224
-66.111
-73.627
-81.588
-88.008
-90.631
-87.771
-77.835
-59.023
-30.204
8.806
57.207
112.822
172.578
233.542
292.463
345.174
387.541
416.156
428.182
423.07
402.85
368.115
319.412
257.169
179.777
92.472
5.879
-69.442
-121.085
-146.502
-153.275
-148.229
-139.954
-132.021
-120.988
-106.868
-90.781
-74.115
-60.571
-51.808
-47.38
-46.941
-49.624
-53.599
-57.365
-60.196
-61.551
-61.412
-60.23
-58.053
-54.875
-51.446
-48.481
-46.31
-45.223
-45.12
-45.709
-46.99
-48.964
-51.344
-53.866
-56.306
-58.44
-60.244
-61.743
-62.879
-63.612
-63.938
-63.854
-63.391
-62.596
-61.483
-60.065
-58.361
-56.395
-54.211
-51.857
-49.387
-46.841
-44.242
-41.605
-38.942
-36.256
-33.553
-30.832
-28.078
-25.281
-22.431
-19.524
-16.559
-13.534
-10.441
-7.273
-4.02
-0.677
2.755
6.272
9.874
13.554
17.307
21.122
24.986
28.886
32.812
36.751
40.695
44.63
48.544
52.422
56.254
60.025
63.721
67.326
70.827
74.206
77.449
80.542
83.472
86.223
88.782
91.136
93.275
95.185
96.858
98.283
99.451
100.355
100.989
101.348
101.428
101.227
100.743
99.978
98.932
97.611
96.017
94.158
92.039
89.67
87.059
84.218
81.156
77.887
74.424
70.78
66.972
63.013
58.92
54.71
50.399
46.004
41.544
37.034
32.493
27.937
23.384
18.851
14.354
9.909
5.532
1.238
-2.958
-7.044
-11.005
-14.831
-18.51
-22.033
-25.39
-28.574
-31.579
-34.398
-37.028
-39.463
-41.703
-43.744
-45.588
-47.233
-48.681
-49.935
-50.998
-51.873
-52.564
-53.078
-53.421
-53.598
-53.617
-53.486
-53.212
-52.805
-52.273
-51.625
-50.871
-50.021
-49.085
-48.072
-46.992
-45.855
-44.669
-43.444
-42.187
-40.905
-39.606
-38.295
-36.979
-35.662
-34.348
-33.04
-31.742
-30.454
-29.18
-27.918
-26.669
-25.431
-24.205
-22.987
-21.776
-20.571
-19.367
-18.161
-16.951
-15.734
-14.507
-13.266
-12.008
-10.729
-9.427
-8.1
-6.744
-5.36
-3.944
-2.496
-1.017
0.488
2.014
3.555
5.104
6.654
8.197
9.725
11.23
12.705
14.146
15.543
16.889
18.174
19.385
20.512
21.541
22.462
23.272
23.964
24.537
24.99
25.317
25.508
25.555
25.438
25.141
24.655
23.964
23.061
21.949
20.639
19.161
17.544
15.796
13.923
11.92
9.8
7.619
5.428
3.257
1.151
-0.889
-2.829
-4.553
-6.079
-7.541
-9.055
-10.822
-12.913
-15.139
-17.485
-20.125
-22.963
-25.837
-28.591
-30.785
-32.414
-33.961
-35.464
-36.748
-37.926
-39.012
-40.112
-41.809
-44.11
-46.616
-49.636
-53.617
-58.776
-65.459
-73.728
-83.03
-93.012
-103.141
-111.864
-117.349
-117.79
-111.213
-95.898
-70.719
-34.889
11.412
66.547
128.104
193.133
258.009
318.473
370.087
408.73
431.169
436.389
425.23
397.604
353.897
294.643
219.016
132.412
44.466
-35.636
-96.335
-134.06
-154.299
-162.309
-165.227
-166.328
-162.675
-153.559
-139.957
-124.102
-109.936
-99.328
-92.186
-87.957
-85.736
-84.757
-84.169
-82.902
-80.296
-76.25
-71.063
-65.256
-59.239
-53.316
-47.896
-43.446
-40.241
-38.341
-37.634
-37.876
-38.862
-40.446
-42.44
-44.644
-46.875
-48.941
-50.723
-52.168
-53.221
-53.849
-54.032
-53.741
-52.98
-51.785
-50.188
-48.226
-45.94
-43.356
-40.513
-37.462
-34.256
-30.954
-27.6
-24.215
-20.818
-17.416
-14.015
-10.62
-7.225
-3.812
-0.368
3.112
6.634
10.195
13.796
17.444
21.143
24.894
28.696
32.546
36.436
40.361
44.312
48.28
52.25
56.207
60.138
64.031
67.872
71.652
75.357
78.975
82.492
85.898
89.178
92.32
95.31
98.133
100.777
103.229
105.478
107.51
109.317
110.887
112.213
113.286
114.1
114.648
114.926
114.93
114.658
114.107
113.278
112.171
110.788
109.132
107.208
105.02
102.577
99.885
96.953
93.792
90.412
86.825
83.044
79.081
74.953
70.673
66.259
61.726
57.092
52.374
47.591
42.759
37.898
33.024
28.154
23.306
18.497
13.742
9.056
4.456
-0.046
-4.436
-8.702
-12.831
-16.814
-20.639
-24.3
-27.788
-31.096
-34.22
-37.153
-39.894
-42.44
-44.788
-46.939
-48.893
-50.651
-52.216
-53.589
-54.776
-55.779
-56.605
-57.259
-57.748
-58.077
-58.255
-58.287
-58.182
-57.947
-57.589
-57.114
-56.53
-55.842
-55.057
-54.18
-53.217
-52.174
-51.054
-49.863
-48.606
-47.285
-45.905
-44.468
-42.976
-41.432
-39.838
-38.195
-36.504
-34.767
-32.985
-31.161
-29.296
-27.392
-25.451
-23.475
-21.465
-19.423
-17.352
-15.254
-13.131
-10.988
-8.83
-6.664
-4.5
-2.346
-0.213
1.887
3.946
5.953
7.9
9.78
11.586
13.307
14.936
16.469
17.886
19.168
20.298
21.255
22.039
22.656
23.087
23.314
23.369
23.273
23.043
22.699
22.2
21.487
20.582
19.536
18.221
16.493
14.46
12.14
9.538
7.027
3.745
-1.148
-6.376
-11.535
-14.319
-11.956
-7.439
-2.758
-0.901
-6.005
-14.43
-23.091
-29.871
-31.273
-29.858
-28.248
-27.101
-28.055
-30.289
-32.677
-35.48
-38.665
-42.337
-46.66
-51.319
-55.819
-59.828
-63.161
-65.538
-66.63
-66.417
-65.007
-62.793
-60.738
-59.572
-59.705
-61.762
-66.126
-72.464
-80.117
-87.712
-92.941
-93.896
-88.913
-75.976
-53.588
-21.225
20.887
71.226
126.866
184.758
241.482
292.868
334.853
363.899
377.207
373.205
351.923
314.509
263.327
202.021
134.951
66.827
2.258
-54.476
-100.138
-132.975
-152.66
-160.156
-157.403
-147.002
-131.803
-114.989
-99.466
-87.013
-78.477
-73.933
-72.789
-74.17
-77.132
-80.44
-82.886
-83.894
-83.281
-81.196
-78.115
-74.478
-70.67
-67.172
-64.407
-62.563
-61.697
-61.726
-62.448
-63.718
-65.384
-67.266
-69.208
-71.062
-72.728
-74.15
-75.281
-76.08
-76.517
-76.573
-76.24
-75.533
-74.464
-73.049
-71.32
-69.302
-67.033
-64.554
-61.904
-59.136
-56.288
-53.382
-50.44
-47.474
-44.486
-41.483
-38.46
-35.404
-32.308
-29.164
-25.965
-22.707
-19.387
-15.997
-12.53
-8.978
-5.336
-1.605
2.215
6.119
10.102
14.157
18.274
22.439
26.639
30.863
35.098
39.333
43.556
47.752
51.908
56.008
60.037
63.98
67.818
71.534
75.109
78.526
81.768
84.817
87.657
90.273
92.647
94.768
96.621
98.196
99.48
100.464
101.14
101.502
101.545
101.266
100.663
99.737
98.49
96.927
95.052
92.872
90.398
87.638
84.604
81.31
77.769
73.996
70.009
65.826
61.464
56.945
52.288
47.515
42.648
37.708
32.719
27.7
22.674
17.662
12.683
7.757
2.902
-1.863
-6.523
-11.062
-15.466
-19.723
-23.82
-27.749
-31.499
-35.064
-38.439
-41.617
-44.597
-47.374
-49.949
-52.321
-54.49
-56.457
-58.225
-59.797
-61.177
-62.369
-63.378
-64.212
-64.875
-65.375
-65.718
-65.912
-65.963
-65.878
-65.661
-65.32
-64.858
-64.282
-63.595
-62.801
-61.903
-60.904
-59.808
-58.615
-57.329
-55.948
-54.475
-52.91
-51.253
-49.504
-47.665
-45.737
-43.719
-41.614
-39.424
-37.153
-34.804
-32.379
-29.882
-27.316
-24.688
-22.003
-19.265
-16.482
-13.661
-10.813
-7.95
-5.085
-2.231
0.599
3.388
6.122
8.784
11.362
13.843
16.217
18.467
20.58
22.539
24.327
25.934
27.344
28.543
29.519
30.261
30.765
31.031
31.057
30.838
30.364
29.622
28.603
27.308
25.735
23.888
21.78
19.426
16.856
14.117
11.245
8.275
5.239
2.157
-0.93
-3.975
-6.946
-9.798
-12.492
-15.005
-17.306
-19.382
-21.256
-22.962
-24.539
-26.047
-27.531
-29.049
-30.685
-32.51
-34.618
-37.076
-39.942
-43.336
-47.279
-51.69
-56.414
-61.085
-65.3
-68.801
-71.249
-72.221
-71.693
-69.826
-67.03
-64.326
-62.521
-62.04
-63.53
-67.413
-73.315
-80.5
-87.483
-91.718
-91.079
-83.856
-68.099
-42.356
-6.011
40.858
96.806
158.128
220.223
278.743
329.826
372.482
407.679
435.222
452.533
452.443
426.371
368.767
280.443
172.745
62.371
-32.981
-99.766
-135.782
-146.864
-144.024
-137.589
-131.605
-125.95
-117.588
-105.186
-90.81
-77.167
-67.129
-61.884
-60.665
-62.309
-65.564
-69.091
-71.795
-73.112
-72.82
-71.092
-68.396
-65.148
-61.714
-58.545
-56.085
-54.553
-54.01
-54.354
-55.36
-56.863
-58.71
-60.721
-62.722
-64.547
-66.083
-67.268
-68.072
-68.476
-68.46
-68.012
-67.135
-65.848
-64.176
-62.152
-59.808
-57.171
-54.279
-51.174
-47.903
-44.526
-41.086
-37.61
-34.122
-30.635
-27.157
-23.696
-20.252
-16.815
-13.376
-9.93
-6.471
-3.002
0.479
3.979
7.502
11.056
14.643
18.265
21.918
25.6
29.305
33.028
36.759
40.484
44.192
47.87
51.51
55.1
58.631
62.088
65.46
68.736
71.903
74.949
77.858
80.616
83.21
85.63
87.863
89.9
91.728
93.334
94.712
95.858
96.756
97.393
97.757
97.835
97.63
97.157
96.403
95.354
94.045
92.501
90.747
88.818
86.698
84.353
81.819
79.154
76.252
72.984
69.451
65.661
61.605
57.609
52.86
46.566
39.902
33.241
28.728
28.928
31.042
33.209
32.649
25.538
15.29
4.802
-3.936
-7.647
-8.651
-9.301
-10.111
-12.513
-15.663
-18.477
-21.156
-23.558
-25.753
-27.956
-30.026
-31.849
-33.466
-34.889
-36.108
-37.133
-37.977
-38.652
-39.186
-39.613
-39.93
-40.136
-40.243
-40.26
-40.197
-40.063
-39.866
-39.611
-39.306
-38.963
-38.588
-38.188
-37.769
-37.335
-36.892
-36.442
-35.989
-35.535
-35.082
-34.63
-34.178
-33.726
-33.272
-32.814
-32.346
-31.866
-31.369
-30.85
-30.303
-29.723
-29.104
-28.441
-27.729
-26.964
-26.142
-25.258
-24.309
-23.29
-22.199
-21.036
-19.798
-18.485
-17.096
-15.634
-14.103
-12.51
-10.86
-9.16
-7.418
-5.644
-3.847
-2.038
-0.225
1.585
3.382
5.157
6.898
8.591
10.224
11.782
13.252
14.617
15.865
16.982
17.96
18.796
19.484
20.015
20.382
20.569
20.563
20.359
19.949
19.332
18.515
17.509
16.34
15.045
13.652
12.189
10.684
9.153
7.624
6.12
4.649
3.237
1.911
0.683
-0.419
-1.391
-2.279
-3.115
-3.946
-4.84
-5.821
-6.939
-8.28
-9.883
-11.79
-14.037
-16.589
-19.49
-22.867
-26.706
-30.95
-35.454
-39.84
-43.769
-47.019
-49.199
-49.901
-49.03
-46.556
-42.686
-38.239
-34.166
-31.343
-30.696
-32.031
-33.626
-33.815
-31.783
-29.607
-31.047
-37.705
-46.675
-46.468
-23.885
28.744
111.693
209.929
303.169
376.399
418.302
431.278
425.115
405.918
380.88
349.819
306.693
249.093
174.197
87.049
0.513
-74.08
-125.034
-149.858
-156.032
-150.422
-141.22
-132.139
-120.588
-106.681
-91.388
-76.155
-64.422
-57.485
-54.758
-55.44
-58.142
-61.343
-63.917
-65.208
-64.893
-63.094
-60.266
-56.823
-53.145
-49.723
-47.015
-45.243
-44.489
-44.661
-45.537
-46.958
-48.778
-50.819
-52.911
-54.895
-56.66
-58.144
-59.318
-60.162
-60.65
-60.772
-60.521
-59.916
-58.98
-57.742
-56.233
-54.474
-52.498
-50.341
-48.043
-45.658
-43.222
-40.756
-38.278
-35.793
-33.307
-30.821
-28.33
-25.818
-23.273
-20.682
-18.037
-15.333
-12.566
-9.726
-6.805
-3.793
-0.685
2.519
5.819
9.214
12.698
16.266
19.908
23.611
27.363
31.153
34.968
38.798
42.631
46.451
50.244
53.996
57.692
61.316
64.848
68.272
71.568
74.72
77.709
80.517
83.129
85.527
87.695
89.62
91.287
92.684
93.8
94.624
95.149
95.366
95.272
94.862
94.135
93.091
91.732
90.062
88.086
85.811
83.246
80.4
77.286
73.917
70.306
66.469
62.424
58.187
53.779
49.22
44.531
39.733
34.849
29.901
24.912
19.905
14.902
9.925
4.996
0.136
-4.636
-9.299
-13.836
-18.228
-22.461
-26.52
-30.392
-34.065
-37.529
-40.776
-43.799
-46.593
-49.153
-51.477
-53.563
-55.413
-57.028
-58.41
-59.564
-60.497
-61.213
-61.723
-62.034
-62.158
-62.105
-61.886
-61.516
-61.006
-60.369
-59.621
-58.774
-57.844
-56.844
-55.788
-54.689
-53.562
-52.419
-51.271
-50.13
-49.006
-47.909
-46.847
-45.828
-44.859
-43.945
-43.093
-42.305
-41.584
-40.934
-40.354
-39.845
-39.404
-39.028
-38.714
-38.459
-38.255
-38.098
-37.979
-37.891
-37.827
-37.777
-37.732
-37.682
-37.616
-37.524
-37.396
-37.221
-36.99
-36.692
-36.318
-35.86
-35.312
-34.666
-33.917
-33.059
-32.088
-31.001
-29.797
-28.473
-27.03
-25.469
-23.792
-22.007
-20.121
-18.143
-16.084
-13.953
-11.765
-9.532
-7.267
-4.984
-2.693
-0.405
1.864
4.099
6.279
8.389
10.412
12.33
14.126
15.783
17.286
18.624
19.794
20.785
21.585
22.178
22.541
22.658
22.52
22.12
21.457
20.538
19.372
17.985
16.416
14.695
12.85
10.904
8.866
6.766
4.636
2.507
0.42
-1.588
-3.495
-5.283
-6.95
-8.525
-10.044
-11.555
-13.124
-14.807
-16.67
-18.783
-21.196
-23.981
-27.182
-30.857
-35.125
-40.003
-45.405
-51.148
-56.85
-62.11
-66.668
-70.162
-72.152
-72.573
-71.554
-69.54
-67.566
-66.432
-66.598
-68.692
-73.121
-79.547
-87.244
-94.745
-99.593
-99.747
-93.425
-78.638
-54.074
-19.159
26.1
80.168
140.299
202.957
262.899
315.904
359.081
390.415
411.819
422.871
419.129
397.062
349.145
271.192
170.561
57.353
-51.322
-135.149
-186.569
-204.823
-197.356
-180.221
-162.432
-147.898
-137.125
-125.512
-112.11
-98.736
-87
-79.511
-76.833
-77.552
-80.384
-83.647
-85.879
-86.63
-85.767
-83.418
-80.068
-76.177
-72.155
-68.509
-65.707
-63.956
-63.295
-63.619
-64.701
-66.361
-68.434
-70.734
-73.077
-75.296
-77.278
-78.955
-80.293
-81.268
-81.856
-82.042
-81.822
-81.214
-80.24
-78.934
-77.327
-75.441
-73.312
-70.977
-68.481
-65.878
-63.207
-60.491
-57.748
-54.984
-52.203
-49.408
-46.593
-43.741
-40.839
-37.875
-34.837
-31.723
-28.524
-25.233
-21.838
-18.33
-14.702
-10.953
-7.083
-3.093
1.012
5.228
9.545
13.95
18.43
22.973
27.569
32.204
36.865
41.537
46.203
50.847
55.453
60.001
64.471
68.843
73.096
77.209
81.162
84.937
88.512
91.869
94.991
97.858
100.457
102.77
104.785
106.487
107.866
108.912
109.617
109.975
109.982
109.634
108.933
107.878
106.474
104.725
102.639
100.225
97.493
94.456
91.128
87.527
83.669
79.573
75.262
70.756
66.079
61.254
56.305
51.257
46.136
40.964
35.768
30.571
25.397
20.268
15.208
10.237
5.375
0.643
-3.943
-8.366
-12.612
-16.665
-20.515
-24.151
-27.563
-30.745
-33.69
-36.395
-38.856
-41.073
-43.047
-44.779
-46.274
-47.536
-48.574
-49.394
-50.006
-50.42
-50.647
-50.7
-50.59
-50.331
-49.936
-49.419
-48.793
-48.072
-47.269
-46.397
-45.47
-44.5
-43.498
-42.476
-41.445
-40.414
-39.394
-38.393
-37.42
-36.481
-35.584
-34.734
-33.935
-33.193
-32.51
-31.889
-31.331
-30.837
-30.404
-30.033
-29.721
-29.463
-29.255
-29.092
-28.969
-28.878
-28.813
-28.768
-28.734
-28.704
-28.671
-28.627
-28.566
-28.479
-28.359
-28.199
-27.992
-27.733
-27.414
-27.029
-26.574
-26.043
-25.433
-24.741
-23.962
-23.096
-22.139
-21.092
-19.954
-18.726
-17.41
-16.008
-14.525
-12.967
-11.344
-9.665
-7.941
-6.181
-4.399
-2.606
-0.816
0.961
2.716
4.441
6.123
7.752
9.311
10.79
12.176
13.457
14.619
15.652
16.543
17.289
17.889
18.34
18.632
18.758
18.696
18.436
17.972
17.296
16.408
15.314
14.024
12.561
10.966
9.265
7.486
5.649
3.766
1.864
-0.022
-1.868
-3.639
-5.302
-6.839
-8.223
-9.445
-10.531
-11.516
-12.442
-13.367
-14.329
-15.379
-16.586
-18.01
-19.735
-21.824
-24.327
-27.366
-30.972
-35.075
-39.518
-43.921
-47.838
-50.952
-52.878
-53.167
-51.79
-48.954
-45.164
-41.605
-39.334
-39.057
-41.666
-47.744
-56.907
-68.232
-79.978
-89.204
-93.227
-89.75
-76.132
-50.469
-12.36
37.61
97.415
163.298
231.258
296.956
355.124
400.837
430.266
441.424
434.616
411.237
373.382
320.999
251.956
168.16
74.628
-17.559
-91.077
-135.961
-150.632
-141.732
-124.266
-108.291
-97.052
-89.88
-82.472
-73.509
-64.548
-57.269
-53.511
-53.311
-55.509
-59.058
-62.633
-65.196
-66.37
-66.038
-64.447
-62.1
-59.394
-56.676
-54.325
-52.677
-51.908
-52.05
-52.999
-54.556
-56.55
-58.823
-61.216
-63.568
-65.734
-67.616
-69.148
-70.296
-71.039
-71.354
-71.234
-70.68
-69.71
-68.344
-66.613
-64.547
-62.176
-59.538
-56.675
-53.63
-50.459
-47.202
-43.885
-40.533
-37.156
-33.763
-30.361
-26.949
-23.52
-20.066
-16.583
-13.065
-9.516
-5.931
-2.306
1.362
5.08
8.852
12.675
16.548
20.468
24.431
28.43
32.456
36.499
40.548
44.593
48.626
52.638
56.619
60.556
64.44
68.258
71.998
75.648
79.194
82.62
85.911
89.056
92.038
94.845
97.463
99.878
102.079
104.052
105.787
107.273
108.5
109.46
110.144
110.546
110.662
110.487
110.018
109.253
108.194
106.841
105.197
103.266
101.054
98.569
95.817
92.81
89.559
86.075
82.373
78.466
74.372
70.107
65.688
61.135
56.467
51.702
46.861
41.965
37.033
32.087
27.146
22.229
17.357
12.549
7.822
3.196
-1.315
-5.693
-9.923
-13.992
-17.885
-21.592
-25.101
-28.403
-31.49
-34.355
-36.993
-39.399
-41.571
-43.507
-45.206
-46.671
-47.902
-48.905
-49.682
-50.24
-50.587
-50.73
-50.678
-50.441
-50.031
-49.459
-48.737
-47.878
-46.895
-45.802
-44.611
-43.339
-41.997
-40.602
-39.166
-37.704
-36.231
-34.759
-33.301
-31.869
-30.474
-29.128
-27.839
-26.618
-25.471
-24.407
-23.431
-22.549
-21.766
-21.085
-20.508
-20.035
-19.666
-19.4
-19.232
-19.159
-19.175
-19.275
-19.45
-19.694
-19.997
-20.352
-20.747
-21.172
-21.616
-22.068
-22.514
-22.942
-23.341
-23.696
-23.998
-24.235
-24.398
-24.477
-24.464
-24.352
-24.134
-23.804
-23.358
-22.792
-22.103
-21.291
-20.354
-19.297
-18.124
-16.842
-15.46
-13.989
-12.44
-10.826
-9.162
-7.46
-5.734
-3.996
-2.259
-0.536
1.157
2.804
4.386
5.884
7.279
8.554
9.693
10.681
11.505
12.157
12.632
12.925
13.03
12.937
12.626
12.083
11.301
10.281
9.025
7.547
5.858
3.979
1.948
-0.197
-2.418
-4.681
-6.975
-9.292
-11.613
-13.908
-16.132
-18.244
-20.231
-22.101
-23.85
-25.471
-26.954
-28.296
-29.556
-30.819
-32.161
-33.645
-35.307
-37.141
-39.191
-41.576
-44.321
-47.365
-50.523
-53.408
-55.701
-57.247
-57.776
-56.953
-54.691
-51.047
-46.449
-41.909
-38.264
-36.077
-36.064
-38.692
-43.747
-50.641
-58.013
-63.543
-65.237
-61.223
-49.319
-27.989
3.322
44.321
93.33
147.486
204.09
259.856
310.423
351.836
380.653
394.14
392.119
375.185
342.533
295.577
235.407
163.394
86.801
11.336
-57.023
-111.014
-151.103
-178.483
-194.759
-204.028
-205.561
-198.252
-182.924
-160.521
-134.44
-108.007
-82.717
-59.622
-39.392
-23.076
-11.931
-6.193
-5.342
-8.548
-14.952
-23.925
-34.612
-45.57
-55.375
-63.206
-68.755
-72.13
-73.615
-73.42
-71.945
-69.945
-68.096
-66.767
-66.113
-66.038
-66.357
-66.967
-67.687
-68.215
-68.355
-68.015
-67.174
-65.923
-64.351
-62.491
-60.408
-58.178
-55.849
-53.464
-51.036
-48.544
-45.979
-43.341
-40.624
-37.831
-34.953
-31.972
-28.879
-25.671
-22.342
-18.897
-15.333
-11.648
-7.843
-3.918
0.125
4.281
8.547
12.919
17.39
21.956
26.607
31.329
36.108
40.933
45.791
50.67
55.557
60.435
65.29
70.106
74.865
79.551
84.141
88.616
92.954
97.134
101.137
104.943
108.532
111.887
114.989
117.822
120.371
122.622
124.56
126.174
127.453
128.387
128.969
129.192
129.053
128.547
127.675
126.438
124.838
122.881
120.573
117.924
114.942
111.641
108.035
104.139
99.971
95.55
90.898
86.035
80.985
75.773
70.423
64.96
59.409
53.797
48.147
42.486
36.837
31.225
25.671
20.2
14.832
9.587
4.484
-0.458
-5.225
-9.8
-14.168
-18.321
-22.248
-25.943
-29.4
-32.612
-35.573
-38.287
-40.757
-42.977
-44.943
-46.657
-48.115
-49.335
-50.34
-51.129
-51.701
-52.098
-52.355
-52.504
-52.585
-52.591
-52.488
-52.316
-52.135
-51.838
-51.296
-50.606
-49.772
-48.777
-47.936
-46.436
-43.487
-40.237
-37.041
-36.001
-39.634
-45.165
-50.743
-53.612
-49.983
-43.208
-36.127
-30.686
-30.098
-32.06
-34.233
-36.095
-36.217
-35.419
-34.755
-34.014
-33.326
-32.611
-31.649
-30.572
-29.487
-28.351
-27.149
-25.892
-24.571
-23.177
-21.703
-20.128
-18.427
-16.611
-14.692
-12.666
-10.539
-8.314
-5.995
-3.59
-1.112
1.432
4.034
6.681
9.358
12.049
14.735
17.398
20.023
22.592
25.088
27.497
29.801
31.988
34.048
35.971
37.741
39.345
40.766
41.992
43.02
43.847
44.474
44.9
45.124
45.145
44.963
44.568
43.951
43.098
41.993
40.626
38.997
37.118
35.02
32.731
30.278
27.674
24.917
22.024
19.021
15.946
12.858
9.806
6.803
3.9
1.187
-1.3
-3.57
-5.771
-8.228
-11.134
-14.488
-18.234
-22.303
-26.608
-31.022
-35.071
-37.834
-38.676
-37.453
-34.363
-29.891
-24.437
-18.333
-12.443
-8.433
-7.805
-11.395
-19.411
-31.302
-46.533
-64.79
-85.107
-105.316
-122.839
-135.358
-140.953
-138.564
-127.31
-106.045
-74.058
-31.833
18.934
76.143
136.415
195.337
250.092
298.277
338.222
371.014
394.068
401.066
387.857
350.601
290.543
216.011
134.07
50.21
-29.249
-99.117
-154.684
-189.921
-203.228
-199.479
-182.53
-157.889
-132.628
-108.199
-87.956
-75.636
-68.612
-66.339
-67.507
-68.331
-69.677
-71.676
-73.255
-75.171
-76.323
-75.744
-73.782
-70.417
-66.386
-62.671
-59.694
-57.714
-56.79
-56.768
-57.573
-59.182
-61.337
-63.775
-66.279
-68.618
-70.714
-72.542
-74.035
-75.146
-75.859
-76.159
-76.054
-75.574
-74.725
-73.52
-71.984
-70.131
-67.999
-65.627
-63.056
-60.336
-57.501
-54.574
-51.571
-48.503
-45.376
-42.198
-38.967
-35.674
-32.314
-28.881
-25.374
-21.799
-18.153
-14.433
-10.638
-6.763
-2.811
1.211
5.297
9.438
13.625
17.846
22.088
26.332
30.563
34.768
38.933
43.045
47.09
51.053
54.92
58.677
62.31
65.805
69.147
72.321
75.314
78.111
80.702
83.073
85.214
87.114
88.764
90.156
91.283
92.138
92.718
93.017
93.033
92.764
92.211
91.375
90.258
88.864
87.197
85.265
83.076
80.637
77.96
75.055
71.934
68.61
65.097
61.409
57.562
53.57
49.451
45.221
40.898
36.499
32.042
27.545
23.024
18.497
13.982
9.493
5.048
0.661
-3.653
-7.878
-12.002
-16.011
-19.894
-23.638
-27.234
-30.672
-33.943
-37.041
-39.96
-42.696
-45.243
-47.6
-49.766
-51.74
-53.523
-55.115
-56.521
-57.743
-58.785
-59.654
-60.353
-60.891
-61.273
-61.507
-61.601
-61.564
-61.402
-61.125
-60.741
-60.259
-59.687
-59.035
-58.312
-57.526
-56.685
-55.8
-54.876
-53.924
-52.95
-51.961
-50.964
-49.964
-48.967
-47.976
-46.995
-46.026
-45.072
-44.132
-43.207
-42.297
-41.401
-40.516
-39.641
-38.774
-37.911
-37.05
-36.188
-35.32
-34.442
-33.552
-32.646
-31.719
-30.767
-29.788
-28.778
-27.734
-26.654
-25.535
-24.377
-23.176
-21.931
-20.643
-19.311
-17.936
-16.521
-15.067
-13.58
-12.067
-10.539
-9.004
-7.473
-5.957
-4.468
-3.018
-1.619
-0.28
0.992
2.188
3.298
4.308
5.208
5.986
6.633
7.137
7.488
7.677
7.699
7.55
7.233
6.742
6.074
5.218
4.155
2.876
1.379
-0.336
-2.263
-4.39
-6.7
-9.159
-11.723
-14.355
-17.013
-19.667
-22.291
-24.843
-27.294
-29.607
-31.736
-33.64
-35.3
-36.706
-37.868
-38.815
-39.569
-40.159
-40.653
-41.131
-41.69
-42.43
-43.437
-44.778
-46.525
-48.805
-51.655
-55.015
-58.709
-62.356
-65.575
-68.111
-69.649
-69.821
-68.597
-66.142
-62.907
-59.937
-58.048
-57.686
-59.483
-63.801
-70.174
-77.734
-84.857
-88.919
-87.841
-79.895
-62.982
-35.734
2.117
50.032
105.991
166.749
229.298
290.145
345.01
390.124
422.237
439.01
439.609
423.92
392.243
346.409
289.468
224.887
156.642
88.227
22.651
-36.486
-85.932
-123.985
-149.993
-164.341
-168.3
-162.87
-149.481
-131.052
-110.746
-91.037
-73.948
-60.458
-50.957
-46.259
-46.652
-51.161
-58.328
-66.623
-74.541
-81.407
-86.905
-90.333
-91.305
-90.025
-86.988
-83.052
-79.209
-75.909
-73.325
-71.747
-71.268
-71.849
-73.396
-75.532
-77.75
-79.77
-81.454
-82.709
-83.558
-83.993
-83.964
-83.51
-82.711
-81.619
-80.277
-78.694
-76.844
-74.735
-72.399
-69.881
-67.245
-64.532
-61.757
-58.933
-56.066
-53.161
-50.226
-47.257
-44.236
-41.151
-37.992
-34.757
-31.45
-28.067
-24.599
-21.035
-17.36
-13.571
-9.667
-5.648
-1.517
2.721
7.059
11.485
15.985
20.544
25.15
29.79
34.45
39.115
43.767
48.388
52.962
57.468
61.886
66.196
70.375
74.404
78.26
81.925
85.378
88.598
91.569
94.27
96.686
98.801
100.601
102.071
103.201
103.982
104.405
104.466
104.161
103.489
102.451
101.052
99.296
97.192
94.75
91.98
88.898
85.519
81.861
77.944
73.786
69.412
64.844
60.107
55.225
50.226
45.135
39.979
34.785
29.578
24.386
19.235
14.148
9.15
4.265
-0.487
-5.084
-9.507
-13.74
-17.766
-21.574
-25.15
-28.485
-31.572
-34.405
-36.981
-39.297
-41.354
-43.154
-44.703
-46.004
-47.067
-47.9
-48.513
-48.919
-49.13
-49.159
-49.021
-48.731
-48.305
-47.759
-47.108
-46.369
-45.559
-44.692
-43.785
-42.85
-41.903
-40.956
-40.02
-39.107
-38.226
-37.384
-36.591
-35.85
-35.168
-34.546
-33.987
-33.492
-33.057
-32.681
-32.36
-32.087
-31.856
-31.66
-31.489
-31.336
-31.19
-31.041
-30.879
-30.693
-30.47
-30.2
-29.872
-29.474
-28.996
-28.428
-27.761
-26.987
-26.099
-25.093
-23.964
-22.709
-21.326
-19.815
-18.176
-16.412
-14.526
-12.522
-10.408
-8.191
-5.884
-3.5
-1.055
1.435
3.953
6.48
8.995
11.481
13.918
16.291
18.582
20.775
22.849
24.786
26.567
28.175
29.591
30.799
31.785
32.536
33.044
33.302
33.306
33.053
32.537
31.75
30.677
29.31
27.65
25.702
23.472
20.978
18.24
15.288
12.166
8.915
5.578
2.196
-1.199
-4.578
-7.909
-11.153
-14.254
-17.166
-19.874
-22.37
-24.655
-26.726
-28.567
-30.194
-31.68
-33.116
-34.59
-36.184
-37.93
-39.879
-42.127
-44.719
-47.635
-50.743
-53.742
-56.326
-58.292
-59.429
-59.465
-58.276
-55.922
-52.719
-49.396
-46.682
-45.007
-44.781
-46.441
-50.032
-55.037
-60.358
-64.174
-64.557
-60.061
-49.197
-30.344
-2.45
34.667
80.141
131.884
187.287
243.917
298.604
347.382
386.601
412.832
424.315
421.635
404.451
372.072
324.217
259.489
181.963
100.952
25.507
-33.634
-72.263
-94.733
-105.418
-110.064
-111.348
-106.819
-96.056
-80.247
-61.939
-45.167
-31.998
-22.855
-17.591
-15.356
-15.406
-16.754
-18.03
-18.433
-17.675
-15.827
-13.284
-10.364
-7.31
-4.561
-2.641
-1.849
-2.28
-3.814
-6.192
-9.22
-12.732
-16.552
-20.491
-24.358
-28.017
-31.388
-34.434
-37.135
-39.468
-41.404
-42.919
-44.018
-44.713
-45.037
-45.026
-44.7
-44.093
-43.237
-42.172
-40.947
-39.597
-38.137
-36.578
-34.921
-33.163
-31.306
-29.346
-27.269
-25.063
-22.717
-20.223
-17.58
-14.784
-11.829
-8.711
-5.423
-1.966
1.654
5.431
9.354
13.413
17.594
21.882
26.255
30.697
35.188
39.712
44.252
48.788
53.302
57.774
62.185
66.515
70.744
74.851
78.815
82.617
86.237
89.658
92.864
95.837
98.562
101.028
103.221
105.132
106.75
108.069
109.081
109.783
110.172
110.247
110.01
109.463
108.61
107.457
106.013
104.286
102.287
100.027
97.519
94.777
91.817
88.655
85.307
81.792
78.127
74.332
70.427
66.429
62.36
58.238
54.083
49.912
45.745
41.599
37.49
33.435
29.449
25.545
21.739
18.041
14.463
11.014
7.704
4.54
1.528
-1.326
-4.018
-6.546
-8.907
-11.101
-13.129
-14.991
-16.69
-18.228
-19.61
-20.841
-21.925
-22.869
-23.68
-24.363
-24.927
-25.38
-25.729
-25.983
-26.15
-26.239
-26.258
-26.215
-26.12
-25.981
-25.805
-25.6
-25.375
-25.136
-24.89
-24.645
-24.405
-24.176
-23.964
-23.772
-23.605
-23.465
-23.356
-23.279
-23.236
-23.228
-23.256
-23.318
-23.414
-23.543
-23.702
-23.888
-24.096
-24.323
-24.563
-24.811
-25.061
-25.307
-25.542
-25.758
-25.948
-26.105
-26.221
-26.286
-26.293
-26.233
-26.099
-25.881
-25.573
-25.167
-24.657
-24.037
-23.301
-22.445
-21.465
-20.359
-19.123
-17.756
-16.258
-14.631
-12.876
-10.997
-8.999
-6.888
-4.677
-2.377
0.002
2.447
4.942
7.472
10.022
12.577
15.125
17.651
20.14
22.573
24.931
27.195
29.347
31.37
33.243
34.949
36.474
37.805
38.938
39.864
40.57
41.041
41.253
41.19
40.843
40.205
39.276
38.063
36.581
34.855
32.93
30.839
28.611
26.273
23.835
21.327
18.784
16.237
13.732
11.307
8.989
6.8
4.742
2.791
0.91
-0.949
-2.861
-4.877
-7.045
-9.408
-11.989
-14.851
-18.051
-21.646
-25.739
-30.357
-35.477
-41.006
-46.631
-51.941
-56.57
-60.06
-61.965
-62.158
-60.526
-57.348
-53.703
-50.602
-48.998
-49.183
-50.205
-51.21
-52.285
-55.632
-63.998
-77.073
-90.09
-92.616
-73.735
-29.345
37.053
114.65
191.195
259.864
318.599
368.078
408.356
437.003
450.189
445.399
422.668
382.461
327.351
259.328
180.458
98.392
19.92
-47.365
-96.769
-131.276
-153.81
-166.237
-169.899
-159.669
-134.248
-99.493
-65.23
-43.555
-40.164
-51.737
-69.047
-82.515
-87.625
-85.182
-79.503
-74.313
-70.731
-68.218
-65.375
-61.675
-57.613
-53.879
-51.15
-49.616
-49.114
-49.482
-50.521
-52.053
-53.947
-56.051
-58.236
-60.409
-62.454
-64.275
-65.81
-67.007
-67.845
-68.309
-68.376
-68.041
-67.328
-66.269
-64.905
-63.269
-61.384
-59.279
-56.99
-54.566
-52.062
-49.519
-46.96
-44.403
-41.855
-39.323
-36.812
-34.317
-31.818
-29.301
-26.753
-24.166
-21.538
-18.864
-16.134
-13.338
-10.467
-7.515
-4.482
-1.367
1.829
5.106
8.457
11.876
15.349
18.868
22.422
26.003
29.6
33.202
36.796
40.371
43.913
47.41
50.846
54.205
57.472
60.629
63.66
66.551
69.284
71.845
74.217
76.386
78.339
80.063
81.546
82.777
83.746
84.444
84.865
85.002
84.853
84.412
83.68
82.657
81.346
79.748
77.871
75.721
73.305
70.633
67.717
64.569
61.202
57.63
53.869
49.937
45.849
41.627
37.287
32.849
28.335
23.762
19.153
14.526
9.901
5.298
0.734
-3.773
-8.204
-12.544
-16.778
-20.891
-24.869
-28.701
-32.375
-35.883
-39.215
-42.365
-45.327
-48.097
-50.672
-53.051
-55.231
-57.214
-59.001
-60.595
-61.999
-63.218
-64.257
-65.123
-65.823
-66.364
-66.756
-67.008
-67.13
-67.131
-67.023
-66.815
-66.519
-66.145
-65.704
-65.205
-64.661
-64.079
-63.471
-62.846
-62.212
-61.577
-60.949
-60.335
-59.742
-59.174
-58.636
-58.133
-57.669
-57.245
-56.865
-56.53
-56.242
-56
-55.806
-55.658
-55.555
-55.494
-55.473
-55.488
-55.535
-55.608
-55.702
-55.812
-55.931
-56.054
-56.172
-56.279
-56.369
-56.434
-56.466
-56.46
-56.407
-56.3
-56.134
-55.901
-55.597
-55.215
-54.751
-54.202
-53.564
-52.834
-52.012
-51.095
-50.082
-48.973
-47.768
-46.47
-45.08
-43.601
-42.036
-40.393
-38.68
-36.907
-35.085
-33.225
-31.337
-29.436
-27.535
-25.646
-23.778
-21.94
-20.143
-18.401
-16.725
-15.131
-13.63
-12.235
-10.96
-9.816
-8.815
-7.965
-7.269
-6.73
-6.354
-6.147
-6.122
-6.297
-6.683
-7.287
-8.112
-9.154
-10.406
-11.855
-13.47
-15.216
-17.058
-18.961
-20.897
-22.844
-24.766
-26.64
-28.435
-30.108
-31.623
-32.962
-34.115
-35.095
-35.928
-36.632
-37.234
-37.803
-38.42
-39.181
-40.183
-41.511
-43.223
-45.387
-48.128
-51.479
-55.38
-59.662
-63.958
-67.905
-71.271
-73.757
-74.987
-74.904
-73.635
-71.584
-69.737
-68.868
-69.385
-71.907
-76.827
-83.765
-91.962
-99.918
-105.118
-105.511
-99.393
-84.677
-59.894
-24.653
20.684
74.349
133.158
193.98
253.307
306.81
350.474
380.894
395.403
392.714
372.888
336.69
286.203
224.919
156.921
86.648
18.449
-43.764
-96.632
-137.546
-165.372
-180.46
-184.143
-178.529
-166.058
-149.412
-131.476
-114.874
-101.275
-91.351
-85.118
-82.097
-81.635
-82.927
-84.883
-86.406
-86.878
-86.18
-84.475
-82.121
-79.464
-76.797
-74.513
-73.031
-72.543
-73.045
-74.413
-76.425
-78.875
-81.6
-84.41
-87.097
-89.524
-91.595
-93.258
-94.509
-95.342
-95.743
-95.717
-95.273
-94.428
-93.215
-91.667
-89.813
-87.696
-85.359
-82.851
-80.23
-77.537
-74.797
-72.027
-69.235
-66.421
-63.589
-60.732
-57.838
-54.898
-51.904
-48.85
-45.732
-42.546
-39.284
-35.938
-32.501
-28.966
-25.334
-21.606
-17.783
-13.871
-9.876
-5.806
-1.673
2.51
6.736
10.994
15.274
19.566
23.857
28.134
32.385
36.595
40.75
44.832
48.824
52.708
56.469
60.089
63.551
66.839
69.937
72.831
75.507
77.95
80.15
82.094
83.772
85.176
86.296
87.127
87.664
87.903
87.841
87.477
86.813
85.851
84.594
83.047
81.216
79.11
76.737
74.109
71.236
68.134
64.815
61.298
57.598
53.735
49.727
45.593
41.355
37.032
32.644
28.212
23.756
19.295
14.848
10.434
6.071
1.776
-2.434
-6.545
-10.54
-14.407
-18.133
-21.708
-25.119
-28.36
-31.421
-34.295
-36.976
-39.46
-41.743
-43.823
-45.699
-47.371
-48.839
-50.106
-51.177
-52.054
-52.745
-53.254
-53.59
-53.759
-53.771
-53.634
-53.357
-52.951
-52.424
-51.787
-51.049
-50.221
-49.313
-48.333
-47.291
-46.197
-45.06
-43.889
-42.691
-41.476
-40.252
-39.025
-37.804
-36.594
-35.403
-34.236
-33.098
-31.994
-30.929
-29.905
-28.927
-27.996
-27.114
-26.282
-25.5
-24.768
-24.084
-23.445
-22.85
-22.294
-21.775
-21.288
-20.829
-20.393
-19.976
-19.572
-19.177
-18.784
-18.389
-17.984
-17.565
-17.124
-16.657
-16.158
-15.621
-15.041
-14.412
-13.733
-12.997
-12.202
-11.343
-10.418
-9.425
-8.361
-7.228
-6.023
-4.75
-3.411
-2.012
-0.561
0.934
2.464
4.021
5.593
7.17
8.741
10.297
11.832
13.335
14.796
16.201
17.537
18.792
19.954
21.013
21.953
22.766
23.44
23.971
24.358
24.594
24.669
24.568
24.271
23.764
23.042
22.105
20.949
19.582
18.015
16.275
14.403
12.434
10.393
8.306
6.187
4.066
1.982
-0.03
-1.93
-3.685
-5.275
-6.693
-7.932
-9.015
-9.971
-10.838
-11.696
-12.624
-13.698
-15.002
-16.599
-18.54
-20.915
-23.839
-27.351
-31.402
-35.83
-40.323
-44.596
-48.423
-51.514
-53.475
-54.068
-53.345
-51.675
-49.828
-48.542
-48.187
-49.13
-51.887
-56.59
-62.771
-69.309
-74.237
-75.474
-71.55
-60.944
-41.847
-13.079
25.712
74.032
129.821
190.259
252.988
313.75
367.362
410.608
439.639
454.42
457.829
447.354
420.883
373.478
298.406
201.124
92.99
-9.453
-87.002
-133.08
-151.27
-152.124
-148.138
-144.541
-140.426
-131.647
-116.124
-96.148
-75.545
-58.096
-45.524
-37.615
-33.983
-34.269
-37.487
-42.021
-46.314
-49.451
-51.226
-51.818
-51.208
-49.04
-45.382
-40.949
-36.643
-33.095
-30.496
-28.713
-27.663
-27.484
-28.225
-29.674
-31.432
-33.098
-34.453
-35.454
-36.121
-36.428
-36.321
-35.776
-34.829
-33.56
-32.034
-30.283
-28.308
-26.106
-23.7
-21.13
-18.454
-15.731
-12.998
-10.275
-7.576
-4.907
-2.273
0.318
2.872
5.41
7.946
10.493
13.056
15.633
18.231
20.859
23.534
26.268
29.068
31.937
34.876
37.887
40.971
44.127
47.347
50.623
53.947
57.312
60.713
64.141
67.589
71.046
74.502
77.945
81.363
84.744
88.074
91.335
94.514
97.595
100.563
103.401
106.093
108.625
110.981
113.147
115.11
116.855
118.371
119.645
120.668
121.431
121.924
122.14
122.074
121.721
121.079
120.147
118.925
117.414
115.619
113.544
111.195
108.581
105.711
102.594
99.243
95.67
91.89
87.919
83.772
79.469
75.026
70.463
65.799
61.053
56.246
51.396
46.523
41.646
36.786
31.959
27.185
22.481
17.864
13.35
8.955
4.693
0.576
-3.382
-7.173
-10.785
-14.211
-17.443
-20.477
-23.306
-25.927
-28.337
-30.536
-32.522
-34.298
-35.863
-37.223
-38.38
-39.34
-40.108
-40.692
-41.097
-41.334
-41.409
-41.332
-41.112
-40.76
-40.285
-39.698
-39.01
-38.231
-37.371
-36.443
-35.456
-34.42
-33.345
-32.242
-31.118
-29.983
-28.844
-27.71
-26.588
-25.483
-24.404
-23.353
-22.338
-21.362
-20.43
-19.544
-18.707
-17.921
-17.187
-16.506
-15.877
-15.3
-14.772
-14.291
-13.853
-13.456
-13.096
-12.766
-12.464
-12.182
-11.916
-11.659
-11.406
-11.148
-10.88
-10.596
-10.288
-9.95
-9.576
-9.161
-8.699
-8.186
-7.618
-6.991
-6.302
-5.548
-4.727
-3.836
-2.876
-1.845
-0.744
0.426
1.66
2.953
4.297
5.684
7.105
8.55
10.009
11.47
12.925
14.366
15.784
17.171
18.516
19.806
21.03
22.178
23.238
24.196
25.042
25.766
26.359
26.819
27.144
27.326
27.357
27.224
26.907
26.393
25.675
24.747
23.605
22.256
20.711
18.996
17.15
15.208
13.2
11.158
9.106
7.08
5.109
3.227
1.477
-0.104
-1.501
-2.697
-3.694
-4.511
-5.147
-5.644
-6.091
-6.573
-7.2
-8.078
-9.271
-10.88
-13.039
-15.813
-19.198
-23.086
-27.183
-31.182
-34.844
-37.857
-39.873
-40.689
-40.302
-39.045
-37.721
-37.194
-38.09
-41
-46.481
-54.676
-65.122
-76.587
-86.827
-93.267
-93.642
-85.761
-67.496
-37.373
4.999
58.701
121.156
188.837
257.795
323.469
380.843
424.861
452.339
462.57
455.678
432.49
391.517
328.556
244.093
144.045
41.334
-44.641
-101.442
-126.422
-126.517
-116.995
-108.217
-103.411
-100.989
-95.601
-85.779
-73.893
-62.708
-55.061
-51.595
-51.138
-52.6
-54.878
-56.932
-58.002
-57.656
-55.832
-52.83
-49.133
-45.147
-41.213
-37.711
-35.007
-33.296
-32.609
-32.842
-33.795
-35.308
-37.232
-39.401
-41.639
-43.783
-45.72
-47.377
-48.712
-49.699
-50.31
-50.533
-50.365
-49.823
-48.927
-47.708
-46.195
-44.415
-42.407
-40.211
-37.875
-35.459
-33.002
-30.532
-28.068
-25.619
-23.188
-20.779
-18.386
-15.991
-13.584
-11.15
-8.681
-6.173
-3.616
-1
1.687
4.457
7.32
10.278
13.335
16.493
19.749
23.103
26.546
30.071
33.666
37.326
41.042
44.806
48.608
52.437
56.281
60.127
63.963
67.771
71.536
75.24
78.864
82.39
85.802
89.079
92.205
95.161
97.929
100.491
102.831
104.932
106.778
108.354
109.647
110.644
111.334
111.707
111.757
111.476
110.861
109.907
108.615
106.984
105.018
102.721
100.099
97.16
93.915
90.375
86.556
82.471
78.14
73.581
68.814
63.86
58.742
53.483
48.107
42.637
37.1
31.52
25.922
20.332
14.773
9.272
3.852
-1.464
-6.654
-11.697
-16.573
-21.262
-25.747
-30.012
-34.043
-37.825
-41.349
-44.604
-47.582
-50.279
-52.69
-54.816
-56.655
-58.21
-59.485
-60.487
-61.223
-61.701
-61.932
-61.926
-61.698
-61.259
-60.626
-59.814
-58.838
-57.716
-56.465
-55.102
-53.644
-52.108
-50.511
-48.87
-47.201
-45.519
-43.841
-42.181
-40.553
-38.97
-37.445
-35.988
-34.608
-33.314
-32.11
-31.002
-29.993
-29.082
-28.272
-27.561
-26.946
-26.423
-25.988
-25.637
-25.361
-25.155
-25.008
-24.913
-24.859
-24.837
-24.837
-24.848
-24.861
-24.866
-24.853
-24.815
-24.743
-24.628
-24.463
-24.24
-23.953
-23.596
-23.165
-22.655
-22.064
-21.392
-20.643
-19.823
-18.938
-17.995
-17.002
-15.972
-14.914
-13.842
-12.762
-11.684
-10.618
-9.576
-8.571
-7.619
-6.732
-5.923
-5.207
-4.599
-4.113
-3.759
-3.545
-3.474
-3.555
-3.797
-4.214
-4.826
-5.647
-6.685
-7.946
-9.431
-11.137
-13.053
-15.155
-17.405
-19.772
-22.221
-24.724
-27.255
-29.78
-32.269
-34.694
-37.013
-39.192
-41.212
-43.066
-44.761
-46.327
-47.78
-49.147
-50.495
-51.894
-53.438
-55.22
-57.315
-59.785
-62.692
-66.146
-70.2
-74.819
-79.852
-84.961
-89.787
-94.053
-97.466
-99.662
-100.46
-99.895
-98.275
-96.453
-95.287
-95.358
-97.292
-101.562
-108.129
-116.471
-125.357
-132.599
-135.927
-133.305
-122.567
-101.973
-70.523
-28.137
23.935
83.106
146.184
209.56
268.818
319.438
357.429
379.492
384.47
373.39
346.348
303.813
246.456
173.223
89.146
3.808
-73.602
-131.424
-165.917
-182.83
-187.882
-188.251
-186.957
-180.652
-168.11
-150.388
-130.388
-112.408
-98.369
-88.444
-82.343
-79.571
-80.095
-82.96
-86.239
-88.752
-89.998
-89.924
-88.904
-86.942
-83.645
-79.347
-75.007
-71.242
-68.42
-66.597
-65.476
-64.988
-65.298
-66.307
-67.663
-69.055
-70.209
-70.991
-71.458
-71.613
-71.384
-70.742
-69.69
-68.259
-66.508
-64.479
-62.176
-59.601
-56.78
-53.741
-50.539
-47.237
-43.872
-40.469
-37.045
-33.606
-30.157
-26.705
-23.251
-19.783
-16.292
-12.769
-9.211
-5.62
-1.998
1.661
5.367
9.13
12.955
16.84
20.783
24.781
28.828
32.917
37.039
41.178
45.321
49.457
53.575
57.664
61.714
65.709
69.638
73.487
77.243
80.892
84.419
87.808
91.043
94.112
96.999
99.692
102.177
104.442
106.476
108.266
109.805
111.081
112.087
112.815
113.259
113.412
113.272
112.837
112.104
111.075
109.751
108.137
106.237
104.059
101.61
98.899
95.938
92.736
89.308
85.668
81.828
77.807
73.619
69.284
64.819
60.241
55.571
50.828
46.029
41.193
36.341
31.489
26.656
21.86
17.118
12.447
7.863
3.383
-0.98
-5.212
-9.301
-13.235
-17.004
-20.6
-24.016
-27.246
-30.285
-33.129
-35.776
-38.226
-40.477
-42.531
-44.39
-46.057
-47.537
-48.835
-49.955
-50.905
-51.692
-52.322
-52.802
-53.141
-53.347
-53.426
-53.389
-53.243
-52.996
-52.659
-52.238
-51.742
-51.18
-50.557
-49.881
-49.158
-48.391
-47.586
-46.745
-45.871
-44.967
-44.033
-43.072
-42.083
-41.067
-40.022
-38.948
-37.842
-36.703
-35.527
-34.313
-33.057
-31.757
-30.411
-29.02
-27.58
-26.093
-24.557
-22.974
-21.343
-19.664
-17.939
-16.17
-14.358
-12.505
-10.618
-8.704
-6.77
-4.826
-2.885
-0.956
0.946
2.81
4.623
6.375
8.054
9.652
11.157
12.556
13.837
14.988
15.993
16.84
17.517
18.013
18.322
18.436
18.351
18.066
17.578
16.883
15.975
14.839
13.463
11.846
9.992
7.905
5.601
3.094
0.406
-2.422
-5.348
-8.335
-11.337
-14.333
-17.306
-20.23
-23.07
-25.782
-28.323
-30.69
-32.895
-34.93
-36.792
-38.463
-39.944
-41.324
-42.7
-44.163
-45.811
-47.676
-49.801
-52.305
-55.22
-58.492
-61.987
-65.372
-68.319
-70.681
-72.225
-72.659
-71.985
-70.313
-68.032
-65.97
-64.715
-64.576
-66.073
-69.643
-75.11
-81.848
-88.47
-92.96
-93.82
-89.784
-79.181
-60.45
-32.836
3.638
47.7
96.958
149.514
202.404
250.607
290.508
319.678
337.685
348.464
352.254
343.624
316.956
264.788
186.066
92.589
-1.123
-80.391
-133.669
-162.432
-174.566
-177.014
-176.946
-175.581
-169.551
-158.491
-143.446
-126.924
-112.79
-102.612
-96.244
-93.103
-92.184
-92.593
-93.349
-93.4
-92.131
-89.397
-85.488
-80.881
-75.93
-70.965
-66.401
-62.639
-59.932
-58.343
-57.734
-57.891
-58.645
-59.832
-61.313
-62.93
-64.515
-65.952
-67.166
-68.113
-68.776
-69.139
-69.176
-68.879
-68.257
-67.33
-66.134
-64.704
-63.063
-61.243
-59.277
-57.203
-55.073
-52.92
-50.761
-48.609
-46.464
-44.321
-42.181
-40.034
-37.859
-35.638
-33.355
-30.994
-28.548
-26.007
-23.356
-20.585
-17.678
-14.628
-11.432
-8.089
-4.6
-0.968
2.802
6.701
10.714
14.83
19.037
23.322
27.673
32.074
36.509
40.959
45.408
49.837
54.225
58.549
62.789
66.921
70.924
74.778
78.459
81.949
85.227
88.275
91.074
93.608
95.862
97.821
99.472
100.804
101.807
102.475
102.802
102.784
102.418
101.707
100.651
99.256
97.527
95.473
93.103
90.43
87.466
84.227
80.73
76.992
73.033
68.873
64.535
60.04
55.412
50.673
45.847
40.957
36.026
31.078
26.133
21.215
16.344
11.54
6.822
2.21
-2.279
-6.63
-10.829
-14.861
-18.714
-22.379
-25.846
-29.107
-32.157
-34.99
-37.604
-39.996
-42.166
-44.114
-45.843
-47.355
-48.655
-49.746
-50.636
-51.33
-51.834
-52.157
-52.305
-52.287
-52.111
-51.784
-51.314
-50.71
-49.98
-49.131
-48.17
-47.104
-45.94
-44.684
-43.34
-41.914
-40.41
-38.833
-37.186
-35.473
-33.696
-31.858
-29.961
-28.008
-25.998
-23.932
-21.813
-19.64
-17.414
-15.136
-12.806
-10.427
-8
-5.529
-3.016
-0.464
2.123
4.742
7.388
10.055
12.738
15.431
18.126
20.814
23.485
26.125
28.723
31.266
33.741
36.134
38.431
40.622
42.696
44.645
46.459
48.125
49.631
50.968
52.125
53.092
53.86
54.42
54.766
54.896
54.808
54.507
53.989
53.251
52.288
51.087
49.643
47.956
46.027
43.86
41.468
38.867
36.088
33.172
30.151
27.063
23.939
20.811
17.718
14.694
11.771
9
6.417
4.045
1.907
0.006
-1.669
-3.106
-4.334
-5.419
-6.432
-7.472
-8.637
-9.99
-11.635
-13.697
-16.234
-19.235
-22.571
-25.956
-29.091
-31.742
-33.63
-34.434
-33.996
-32.435
-30.202
-28.136
-27.139
-27.8
-30.609
-36.151
-44.552
-55.18
-66.718
-76.965
-83.38
-83.99
-76.944
-60.165
-32.297
6.904
56.613
114.477
177.096
241.191
303.106
358.298
402.385
431.796
443.668
437.29
414.419
375.96
323.113
257.458
178.91
92.623
8.106
-65.513
-117.744
-145.759
-155.521
-152.892
-145.006
-135.631
-122.831
-106.929
-89.673
-72.887
-59.633
-51.185
-47.163
-46.869
-49.398
-53.638
-57.994
-61.399
-63.441
-64.034
-63.529
-62.317
-60.426
-58.008
-55.799
-54.278
-53.609
-53.878
-54.837
-56.255
-58.147
-60.486
-62.993
-65.43
-67.633
-69.444
-70.882
-71.981
-72.685
-72.967
-72.84
-72.322
-71.456
-70.301
-68.873
-67.183
-65.263
-63.138
-60.852
-58.461
-55.997
-53.48
-50.925
-48.335
-45.714
-43.064
-40.382
-37.654
-34.868
-32.013
-29.08
-26.065
-22.964
-19.771
-16.474
-13.063
-9.532
-5.879
-2.105
1.788
5.796
9.914
14.133
18.441
22.825
27.273
31.773
36.314
40.88
45.455
50.022
54.563
59.062
63.497
67.848
72.095
76.216
80.192
84.002
87.627
91.047
94.243
97.198
99.894
102.316
104.449
106.279
107.793
108.982
109.836
110.348
110.513
110.328
109.789
108.899
107.658
106.073
104.15
101.897
99.325
96.449
93.281
89.84
86.144
82.212
78.065
73.726
69.218
64.565
59.791
54.921
49.981
44.994
39.986
34.98
30.001
25.071
20.212
15.444
10.787
6.26
1.88
-2.338
-6.379
-10.23
-13.882
-17.323
-20.548
-23.55
-26.326
-28.874
-31.193
-33.287
-35.158
-36.811
-38.254
-39.493
-40.539
-41.401
-42.091
-42.619
-42.998
-43.241
-43.361
-43.369
-43.279
-43.103
-42.852
-42.539
-42.175
-41.769
-41.331
-40.869
-40.392
-39.907
-39.42
-38.935
-38.456
-37.985
-37.524
-37.074
-36.634
-36.202
-35.775
-35.351
-34.924
-34.489
-34.041
-33.572
-33.075
-32.543
-31.968
-31.344
-30.661
-29.915
-29.099
-28.207
-27.236
-26.181
-25.041
-23.812
-22.495
-21.088
-19.594
-18.015
-16.353
-14.614
-12.803
-10.931
-9.009
-7.049
-5.063
-3.065
-1.07
0.907
2.849
4.746
6.586
8.354
10.036
11.615
13.074
14.4
15.578
16.592
17.429
18.077
18.528
18.779
18.828
18.67
18.302
17.711
16.885
15.812
14.491
12.92
11.106
9.06
6.8
4.358
1.772
-0.92
-3.68
-6.478
-9.282
-12.054
-14.764
-17.375
-19.836
-22.103
-24.142
-25.938
-27.497
-28.839
-29.977
-30.931
-31.752
-32.518
-33.329
-34.27
-35.425
-36.854
-38.618
-40.866
-43.663
-46.954
-50.572
-54.175
-57.4
-60.023
-61.75
-62.163
-61.17
-58.948
-55.999
-53.311
-51.639
-51.575
-53.86
-58.967
-66.824
-75.832
-83.551
-88.27
-87.991
-82.812
-72.782
-53.412
-22.298
23.051
84.486
155.061
228.419
298.825
358.195
404.045
434.702
447.274
442.209
420.645
382.522
329.289
262.337
181.681
93.21
6.701
-68.474
-121.75
-150.922
-162.195
-161.539
-156.48
-150.596
-141.895
-130.758
-118.285
-105.846
-96.405
-90.989
-88.972
-89.573
-91.555
-93.532
-94.429
-93.645
-90.982
-86.722
-81.447
-75.658
-69.774
-64.286
-59.676
-56.218
-54.021
-53.014
-52.979
-53.734
-55.135
-57.031
-59.265
-61.697
-64.174
-66.542
-68.706
-70.594
-72.145
-73.333
-74.126
-74.497
-74.452
-74.023
-73.247
-72.159
-70.788
-69.148
-67.265
-65.181
-62.94
-60.599
-58.194
-55.741
-53.254
-50.738
-48.199
-45.636
-43.038
-40.38
-37.644
-34.819
-31.896
-28.875
-25.749
-22.509
-19.148
-15.659
-12.043
-8.303
-4.441
-0.461
3.627
7.814
12.086
16.424
20.815
25.242
29.691
34.146
38.59
43.005
47.374
51.679
55.903
60.025
64.027
67.89
71.594
75.121
78.455
81.577
84.471
87.122
89.515
91.638
93.478
95.026
96.271
97.206
97.826
98.125
98.101
97.753
97.082
96.089
94.778
93.157
91.232
89.012
86.509
83.734
80.703
77.43
73.931
70.224
66.326
62.258
58.039
53.689
49.23
44.682
40.066
35.405
30.718
26.028
21.353
16.714
12.13
7.619
3.198
-1.117
-5.31
-9.366
-13.274
-17.02
-20.595
-23.988
-27.193
-30.204
-33.016
-35.627
-38.035
-40.242
-42.247
-44.056
-45.672
-47.1
-48.348
-49.421
-50.33
-51.082
-51.687
-52.156
-52.498
-52.725
-52.847
-52.876
-52.823
-52.697
-52.51
-52.271
-51.99
-51.676
-51.338
-50.985
-50.624
-50.262
-49.907
-49.562
-49.233
-48.923
-48.632
-48.362
-48.112
-47.88
-47.662
-47.454
-47.252
-47.05
-46.842
-46.62
-46.378
-46.107
-45.8
-45.448
-45.043
-44.576
-44.04
-43.427
-42.73
-41.942
-41.059
-40.075
-38.987
-37.792
-36.488
-35.072
-33.544
-31.904
-30.152
-28.293
-26.327
-24.263
-22.108
-19.872
-17.57
-15.214
-12.819
-10.403
-7.982
-5.573
-3.192
-0.855
1.423
3.628
5.74
7.744
9.621
11.354
12.928
14.325
15.533
16.54
17.338
17.917
18.274
18.401
18.291
17.933
17.311
16.411
15.232
13.775
12.044
10.052
7.817
5.363
2.731
-0.039
-2.91
-5.839
-8.79
-11.734
-14.636
-17.458
-20.145
-22.652
-24.962
-27.072
-28.986
-30.705
-32.217
-33.535
-34.732
-35.896
-37.118
-38.496
-40.087
-41.96
-44.233
-46.948
-50.066
-53.45
-56.784
-59.743
-62.124
-63.657
-64.023
-63.193
-61.317
-58.816
-56.552
-55.199
-55.109
-56.781
-60.699
-66.684
-74.008
-81.23
-86.18
-87.065
-82.485
-70.781
-50.247
-19.955
19.965
68.112
122.053
179.262
237.043
292.149
340.56
378.194
402.004
409.933
401.765
379.066
343.304
295.87
236.538
164.129
81.421
-4.168
-79.991
-132.709
-157.247
-157.193
-143.069
-126.598
-113.351
-103.459
-94.411
-84.398
-74.08
-65.419
-60.257
-58.795
-60.126
-63.093
-66.203
-68.372
-69.172
-68.423
-66.333
-63.4
-60.026
-56.587
-53.529
-51.216
-49.841
-49.458
-49.965
-51.164
-52.89
-54.985
-57.283
-59.623
-61.849
-63.854
-65.569
-66.959
-68.001
-68.674
-68.963
-68.867
-68.402
-67.592
-66.469
-65.065
-63.406
-61.528
-59.47
-57.276
-55.002
-52.685
-50.35
-48.016
-45.69
-43.376
-41.079
-38.792
-36.499
-34.188
-31.847
-29.465
-27.038
-24.558
-22.015
-19.397
-16.694
-13.898
-11.004
-8.012
-4.919
-1.727
1.562
4.942
8.402
11.934
15.53
19.183
22.884
26.623
30.388
34.168
37.951
41.722
45.467
49.171
52.815
56.383
59.858
63.223
66.461
69.556
72.491
75.25
77.818
80.181
82.326
84.239
85.909
87.325
88.479
89.362
89.968
90.293
90.332
90.085
89.55
88.732
87.632
86.255
84.609
82.702
80.544
78.146
75.522
72.685
69.651
66.437
63.06
59.54
55.895
52.145
48.31
44.41
40.464
36.494
32.517
28.553
24.62
20.736
16.919
13.183
9.545
6.019
2.618
-0.645
-3.761
-6.718
-9.509
-12.128
-14.567
-16.824
-18.896
-20.782
-22.482
-23.996
-25.329
-26.484
-27.466
-28.281
-28.936
-29.439
-29.798
-30.023
-30.122
-30.107
-29.987
-29.772
-29.473
-29.101
-28.665
-28.175
-27.643
-27.076
-26.485
-25.878
-25.266
-24.655
-24.055
-23.473
-22.915
-22.389
-21.899
-21.451
-21.048
-20.693
-20.39
-20.138
-19.94
-19.796
-19.706
-19.667
-19.678
-19.736
-19.839
-19.982
-20.161
-20.37
-20.603
-20.856
-21.121
-21.394
-21.667
-21.934
-22.188
-22.423
-22.631
-22.807
-22.942
-23.029
-23.06
-23.029
-22.928
-22.751
-22.49
-22.141
-21.697
-21.154
-20.51
-19.76
-18.901
-17.932
-16.852
-15.66
-14.357
-12.945
-11.427
-9.806
-8.089
-6.287
-4.408
-2.462
-0.46
1.586
3.665
5.763
7.87
9.978
12.076
14.152
16.192
18.179
20.101
21.945
23.696
25.337
26.855
28.235
29.469
30.554
31.478
32.229
32.79
33.138
33.258
33.143
32.787
32.182
31.331
30.239
28.927
27.434
25.788
24.012
22.13
20.157
18.127
16.088
14.072
12.117
10.254
8.498
6.863
5.36
3.964
2.643
1.365
0.06
-1.335
-2.887
-4.686
-6.788
-9.259
-12.202
-15.739
-19.947
-24.794
-30.086
-35.54
-40.91
-45.966
-50.422
-53.879
-55.996
-56.836
-56.922
-56.981
-57.577
-59.159
-62.264
-67.458
-75.219
-84.427
-91.924
-95.809
-95.332
-91.274
-87.053
-80.544
-64.981
-34.827
16.494
87.448
167.543
247.858
318.586
373.66
413.901
438.981
448.464
442.017
417.738
375.756
318.745
250.709
176.777
101.9
30.374
-33.817
-87.527
-128.584
-156.125
-170.873
-174.512
-169.058
-156.866
-140.479
-122.061
-103.633
-86.74
-71.979
-59.647
-50.082
-43.198
-38.822
-37.05
-37.57
-39.947
-44.039
-49.363
-55.122
-60.906
-66.268
-70.546
-73.543
-75.23
-75.549
-74.902
-73.906
-72.845
-71.969
-71.568
-71.636
-72.149
-73.083
-74.163
-75.066
-75.631
-75.757
-75.398
-74.617
-73.442
-71.89
-70.044
-67.984
-65.767
-63.441
-61.027
-58.538
-55.994
-53.418
-50.831
-48.25
-45.68
-43.12
-40.566
-38.005
-35.43
-32.833
-30.209
-27.554
-24.865
-22.137
-19.366
-16.547
-13.673
-10.74
-7.744
-4.678
-1.539
1.671
4.95
8.29
11.686
15.133
18.628
22.163
25.734
29.333
32.952
36.583
40.217
43.841
47.444
51.009
54.523
57.97
61.335
64.603
67.759
70.785
73.667
76.389
78.935
81.291
83.442
85.373
87.072
88.526
89.723
90.655
91.312
91.687
91.774
91.57
91.072
90.28
89.195
87.818
86.154
84.21
81.992
79.51
76.775
73.797
70.593
67.176
63.564
59.774
55.824
51.735
47.525
43.217
38.83
34.386
29.907
25.413
20.925
16.466
12.054
7.711
3.454
-0.699
-4.73
-8.623
-12.365
-15.943
-19.345
-22.561
-25.582
-28.402
-31.015
-33.416
-35.603
-37.576
-39.334
-40.879
-42.214
-43.344
-44.276
-45.015
-45.57
-45.95
-46.166
-46.227
-46.144
-45.931
-45.599
-45.159
-44.627
-44.013
-43.331
-42.595
-41.817
-41.009
-40.183
-39.35
-38.521
-37.706
-36.913
-36.15
-35.425
-34.744
-34.113
-33.536
-33.017
-32.559
-32.163
-31.831
-31.562
-31.355
-31.207
-31.116
-31.076
-31.082
-31.129
-31.21
-31.32
-31.449
-31.592
-31.74
-31.884
-32.018
-32.132
-32.217
-32.264
-32.266
-32.214
-32.1
-31.917
-31.658
-31.318
-30.891
-30.374
-29.763
-29.056
-28.249
-27.342
-26.333
-25.224
-24.016
-22.71
-21.312
-19.826
-18.262
-16.631
-14.944
-13.211
-11.445
-9.661
-7.871
-6.088
-4.322
-2.582
-0.88
0.772
2.359
3.868
5.288
6.606
7.81
8.887
9.827
10.624
11.273
11.774
12.118
12.298
12.299
12.101
11.692
11.068
10.221
9.149
7.857
6.356
4.671
2.839
0.889
-1.149
-3.247
-5.382
-7.513
-9.606
-11.627
-13.526
-15.265
-16.827
-18.194
-19.363
-20.35
-21.15
-21.786
-22.334
-22.87
-23.48
-24.258
-25.263
-26.588
-28.389
-30.755
-33.673
-37.015
-40.493
-43.776
-46.615
-48.709
-49.675
-49.333
-47.806
-45.603
-43.623
-42.8
-43.997
-47.929
-55.139
-65.901
-78.715
-91.262
-102.013
-108.405
-109.942
-106.623
-93.612
-67.858
-26.574
32.644
103.547
179.458
254.238
320.052
374.322
414.984
439.39
446.778
436.374
408.554
364.548
307.365
239.259
162.704
84.665
10.736
-52.086
-96.58
-124.546
-138.766
-142.437
-140.878
-133.486
-119.752
-102.228
-82.869
-65.093
-51.402
-41.876
-36.354
-34.739
-36.865
-41.975
-48.454
-54.62
-59.512
-62.914
-65.019
-65.795
-64.898
-62.383
-58.917
-55.412
-52.517
-50.45
-49.118
-48.455
-48.608
-49.636
-51.359
-53.406
-55.407
-57.165
-58.633
-59.819
-60.687
-61.181
-61.27
-60.983
-60.379
-59.5
-58.37
-56.985
-55.337
-53.446
-51.339
-49.062
-46.664
-44.179
-41.623
-39.008
-36.34
-33.621
-30.859
-28.051
-25.181
-22.239
-19.214
-16.101
-12.902
-9.616
-6.232
-2.74
0.872
4.608
8.467
12.447
16.545
20.755
25.071
29.481
33.97
38.523
43.128
47.771
52.44
57.119
61.79
66.438
71.044
75.591
80.06
84.432
88.686
92.802
96.763
100.547
104.138
107.517
110.666
113.569
116.209
118.573
120.646
122.416
123.871
125.002
125.799
126.258
126.373
126.141
125.561
124.634
123.364
121.754
119.812
117.545
114.963
112.078
108.903
105.452
101.74
97.786
93.606
89.22
84.649
79.914
75.037
70.04
64.946
59.778
54.558
49.311
44.057
38.82
33.622
28.484
23.427
18.471
13.635
8.936
4.393
0.019
-4.169
-8.161
-11.943
-15.507
-18.844
-21.947
-24.81
-27.43
-29.804
-31.931
-33.812
-35.449
-36.845
-38.004
-38.934
-39.641
-40.135
-40.424
-40.519
-40.431
-40.173
-39.757
-39.198
-38.508
-37.702
-36.794
-35.8
-34.734
-33.611
-32.444
-31.248
-30.035
-28.819
-27.612
-26.425
-25.269
-24.154
-23.089
-22.083
-21.141
-20.27
-19.474
-18.756
-18.117
-17.559
-17.08
-16.679
-16.352
-16.096
-15.905
-15.774
-15.697
-15.665
-15.671
-15.703
-15.754
-15.812
-15.867
-15.908
-15.925
-15.906
-15.843
-15.726
-15.547
-15.297
-14.969
-14.556
-14.052
-13.452
-12.752
-11.95
-11.043
-10.032
-8.919
-7.71
-6.41
-5.029
-3.576
-2.06
-0.495
1.107
2.734
4.373
6.014
7.645
9.251
10.818
12.329
13.767
15.112
16.347
17.454
18.416
19.221
19.857
20.316
20.591
20.676
20.56
20.23
19.668
18.865
17.816
16.519
14.987
13.237
11.295
9.198
6.983
4.687
2.348
-0.007
-2.357
-4.691
-6.993
-9.231
-11.368
-13.378
-15.248
-16.989
-18.631
-20.197
-21.721
-23.264
-24.885
-26.666
-28.678
-30.951
-33.516
-36.383
-39.555
-43.095
-47.058
-51.416
-56.111
-60.959
-65.604
-69.727
-72.997
-74.99
-75.472
-74.338
-71.408
-67.011
-62.087
-57.597
-54.658
-53.364
-52.095
-49.512
-45.712
-43.239
-45.842
-54.168
-63.094
-61.623
-38.964
9.307
78.995
157.138
230.296
290.094
333.125
361.344
376.521
377.544
362.596
329.905
280.844
220.344
153.111
83.448
13.85
-55.553
-120.178
-172.994
-208.293
-219.615
-208.646
-184.534
-155.146
-129.446
-111.755
-99.598
-91.454
-85.872
-81.914
-80.676
-82.053
-84.557
-86.724
-87.463
-86.382
-83.773
-80.125
-75.803
-71.184
-66.819
-63.261
-60.77
-59.399
-59.019
-59.383
-60.343
-61.759
-63.435
-65.177
-66.81
-68.216
-69.335
-70.146
-70.629
-70.759
-70.525
-69.922
-68.967
-67.69
-66.125
-64.307
-62.262
-60.029
-57.646
-55.16
-52.626
-50.082
-47.548
-45.041
-42.567
-40.126
-37.722
-35.347
-32.983
-30.617
-28.234
-25.821
-23.372
-20.876
-18.322
-15.694
-12.98
-10.169
-7.255
-4.236
-1.107
2.132
5.479
8.93
12.477
16.112
19.83
23.624
27.486
31.409
35.38
39.388
43.422
47.467
51.508
55.527
59.507
63.429
67.275
71.024
74.659
78.16
81.507
84.682
87.665
90.439
92.986
95.288
97.331
99.098
100.578
101.759
102.631
103.184
103.413
103.312
102.879
102.112
101.012
99.581
97.823
95.744
93.354
90.661
87.678
84.419
80.898
77.133
73.142
68.944
64.562
60.015
55.326
50.519
45.616
40.642
35.62
30.574
25.527
20.501
15.521
10.605
5.776
1.052
-3.55
-8.011
-12.319
-16.459
-20.418
-24.187
-27.757
-31.12
-34.271
-37.205
-39.921
-42.418
-44.696
-46.758
-48.608
-50.25
-51.689
-52.934
-53.99
-54.867
-55.573
-56.117
-56.509
-56.761
-56.881
-56.882
-56.772
-56.563
-56.265
-55.887
-55.437
-54.923
-54.351
-53.728
-53.059
-52.347
-51.598
-50.813
-49.995
-49.145
-48.264
-47.35
-46.404
-45.422
-44.403
-43.342
-42.237
-41.084
-39.879
-38.619
-37.302
-35.926
-34.487
-32.986
-31.419
-29.787
-28.089
-26.325
-24.496
-22.602
-20.648
-18.637
-16.577
-14.476
-12.346
-10.196
-8.04
-5.89
-3.759
-1.661
0.394
2.392
4.325
6.178
7.938
9.591
11.124
12.522
13.772
14.859
15.772
16.502
17.041
17.381
17.518
17.444
17.152
16.632
15.867
14.848
13.568
12.027
10.227
8.178
5.896
3.407
0.748
-2.042
-4.924
-7.854
-10.797
-13.723
-16.601
-19.392
-22.048
-24.536
-26.835
-28.941
-30.847
-32.538
-34.01
-35.295
-36.477
-37.666
-38.959
-40.439
-42.198
-44.351
-46.963
-50.017
-53.4
-56.852
-60.097
-62.939
-65.163
-66.494
-66.825
-66.299
-65.287
-64.515
-64.727
-66.301
-69.547
-74.863
-82.257
-91.154
-100.386
-107.99
-111.888
-110.611
-102.761
-86.79
-61.639
-26.981
16.452
66.577
120.85
176.859
231.748
282.237
324.831
356.049
373.576
376.14
363.722
337.941
299.852
250.533
190.986
120.754
43.978
-31.101
-96.076
-141.071
-163.914
-170.677
-167.154
-160.577
-154.03
-144.969
-133.435
-120.344
-106.922
-96.113
-89.008
-85.039
-83.784
-84.365
-85.532
-86.312
-86.092
-84.544
-81.845
-78.459
-74.701
-70.84
-67.291
-64.471
-62.629
-61.872
-62.088
-63.04
-64.545
-66.436
-68.556
-70.738
-72.815
-74.669
-76.223
-77.443
-78.316
-78.828
-78.958
-78.698
-78.055
-77.05
-75.722
-74.11
-72.241
-70.156
-67.892
-65.492
-63.008
-60.477
-57.92
-55.349
-52.768
-50.175
-47.573
-44.957
-42.312
-39.623
-36.88
-34.069
-31.186
-28.225
-25.173
-22.022
-18.759
-15.379
-11.88
-8.262
-4.527
-0.678
3.279
7.336
11.481
15.702
19.991
24.335
28.725
33.148
37.59
42.036
46.473
50.885
55.254
59.562
63.791
67.922
71.937
75.818
79.546
83.106
86.479
89.651
92.605
95.329
97.809
100.033
101.989
103.668
105.062
106.164
106.968
107.472
107.672
107.568
107.161
106.455
105.453
104.161
102.586
100.737
98.623
96.257
93.65
90.816
87.771
84.531
81.111
77.531
73.807
69.958
66.002
61.958
57.844
53.678
49.476
45.256
41.034
36.826
32.647
28.51
24.43
20.418
16.487
12.646
8.906
5.276
1.761
-1.63
-4.892
-8.021
-11.014
-13.867
-16.578
-19.147
-21.572
-23.855
-25.996
-27.997
-29.859
-31.585
-33.178
-34.64
-35.975
-37.185
-38.273
-39.242
-40.095
-40.832
-41.455
-41.966
-42.365
-42.653
-42.83
-42.897
-42.854
-42.7
-42.436
-42.062
-41.576
-40.979
-40.269
-39.447
-38.51
-37.46
-36.296
-35.018
-33.626
-32.121
-30.505
-28.779
-26.946
-25.009
-22.971
-20.835
-18.607
-16.292
-13.897
-11.43
-8.899
-6.313
-3.686
-1.032
1.634
4.3
6.948
9.564
12.131
14.634
17.059
19.394
21.628
23.746
25.734
27.579
29.265
30.78
32.108
33.237
34.154
34.851
35.321
35.566
35.579
35.359
34.897
34.182
33.206
31.967
30.466
28.709
26.714
24.502
22.112
19.591
16.978
14.313
11.629
8.946
6.299
3.713
1.209
-1.177
-3.411
-5.474
-7.342
-9.016
-10.536
-11.939
-13.285
-14.658
-16.105
-17.696
-19.501
-21.556
-23.924
-26.644
-29.7
-33.138
-37.027
-41.33
-45.965
-50.715
-55.15
-58.934
-61.779
-63.279
-63.165
-61.359
-57.935
-53.421
-48.656
-44.309
-41.009
-39.356
-39.488
-41.138
-43.594
-45.341
-44.475
-39.273
-28.057
-9.203
18.382
55.098
100.451
151.813
204.99
255.87
301.175
340.428
374.639
404.155
426.754
433.879
416.359
366.691
281.425
171.794
54.476
-52.133
-128.527
-170.703
-182.726
-171.01
-147.572
-118.076
-86.457
-60.71
-45.652
-44.904
-57.551
-74.657
-88.338
-93.97
-91.316
-85.776
-81.091
-78.3
-77.055
-75.106
-71.618
-67.272
-62.632
-58.455
-55.217
-52.857
-51.361
-50.749
-50.841
-51.468
-52.531
-53.913
-55.517
-57.278
-59.083
-60.781
-62.278
-63.508
-64.41
-64.956
-65.121
-64.883
-64.246
-63.235
-61.881
-60.218
-58.271
-56.058
-53.604
-50.944
-48.124
-45.199
-42.209
-39.179
-36.129
-33.071
-30.011
-26.955
-23.897
-20.82
-17.71
-14.558
-11.359
-8.113
-4.818
-1.466
1.95
5.437
8.995
12.625
16.324
20.092
23.923
27.811
31.745
35.711
39.698
43.696
47.693
51.679
55.642
59.568
63.446
67.263
71.007
74.662
78.214
81.648
84.948
88.101
91.093
93.908
96.534
98.957
101.165
103.148
104.893
106.392
107.636
108.615
109.325
109.759
109.914
109.786
109.376
108.682
107.707
106.454
104.928
103.134
101.079
98.771
96.221
93.437
90.432
87.218
83.809
80.218
76.461
72.554
68.513
64.355
60.096
55.753
51.343
46.884
42.391
37.881
33.369
28.871
24.402
19.977
15.609
11.31
7.094
2.97
-1.051
-4.959
-8.748
-12.409
-15.936
-19.323
-22.566
-25.66
-28.602
-31.39
-34.022
-36.495
-38.811
-40.969
-42.97
-44.814
-46.504
-48.04
-49.425
-50.66
-51.746
-52.685
-53.479
-54.128
-54.635
-55
-55.226
-55.313
-55.262
-55.075
-54.753
-54.296
-53.703
-52.976
-52.115
-51.12
-49.993
-48.733
-47.342
-45.822
-44.175
-42.403
-40.511
-38.5
-36.376
-34.141
-31.802
-29.364
-26.834
-24.219
-21.527
-18.767
-15.953
-13.098
-10.216
-7.32
-4.426
-1.551
1.289
4.079
6.804
9.451
12.009
14.46
16.789
18.979
21.014
22.88
24.56
26.038
27.303
28.343
29.15
29.724
30.059
30.148
29.983
29.548
28.833
27.837
26.558
25.001
23.182
21.118
18.842
16.396
13.815
11.137
8.395
5.613
2.825
0.06
-2.658
-5.283
-7.777
-10.114
-12.275
-14.269
-16.129
-17.878
-19.557
-21.221
-22.92
-24.737
-26.752
-29.02
-31.614
-34.551
-37.866
-41.673
-45.985
-50.714
-55.677
-60.484
-64.74
-68.239
-70.656
-71.589
-70.981
-68.885
-65.664
-62.255
-59.378
-57.46
-57.099
-58.655
-61.804
-65.942
-69.828
-71.326
-68.675
-60.31
-44.406
-19.721
14.081
56.673
106.64
161.319
217.916
273.277
323.579
365.08
394.336
408.439
405.471
385.825
351.582
304.974
248.489
182.233
104.856
19.039
-68.634
-147.175
-203.008
-229.119
-226.475
-201.727
-167.488
-135.214
-110.926
-98.395
-95.587
-96.251
-96.721
-93.574
-86.519
-79.529
-74.403
-71.812
-71.317
-70.614
-68.808
-66.137
-62.927
-59.839
-57.27
-55.328
-54.261
-54.237
-55.193
-56.972
-59.349
-62.11
-65.109
-68.2
-71.183
-73.887
-76.212
-78.109
-79.578
-80.625
-81.23
-81.383
-81.1
-80.406
-79.342
-77.945
-76.239
-74.259
-72.049
-69.656
-67.139
-64.537
-61.871
-59.156
-56.395
-53.587
-50.736
-47.835
-44.869
-41.828
-38.701
-35.483
-32.174
-28.769
-25.262
-21.646
-17.914
-14.065
-10.1
-6.024
-1.842
2.438
6.808
11.254
15.76
20.312
24.897
29.5
34.11
38.711
43.286
47.82
52.298
56.702
61.016
65.22
69.297
73.229
76.998
80.588
83.982
87.165
90.12
92.835
95.296
97.491
99.409
101.039
102.373
103.404
104.124
104.529
104.617
104.385
103.832
102.96
101.773
100.275
98.472
96.371
93.981
91.314
88.38
85.194
81.769
78.12
74.264
70.219
66.002
61.632
57.129
52.513
47.804
43.023
38.19
33.325
28.449
23.58
18.738
13.941
9.207
4.552
-0.006
-4.453
-8.775
-12.958
-16.99
-20.86
-24.559
-28.078
-31.412
-34.553
-37.499
-40.245
-42.79
-45.132
-47.272
-49.21
-50.948
-52.488
-53.834
-54.991
-55.964
-56.759
-57.382
-57.841
-58.143
-58.295
-58.306
-58.182
-57.931
-57.561
-57.077
-56.487
-55.799
-55.018
-54.15
-53.202
-52.179
-51.086
-49.928
-48.707
-47.428
-46.093
-44.705
-43.264
-41.774
-40.236
-38.651
-37.022
-35.348
-33.634
-31.879
-30.087
-28.257
-26.39
-24.49
-22.557
-20.595
-18.604
-16.589
-14.554
-12.505
-10.452
-8.401
-6.361
-4.341
-2.351
-0.4
1.501
3.344
5.125
6.835
8.466
10.007
11.447
12.776
13.984
15.058
15.988
16.763
17.375
17.819
18.095
18.198
18.122
17.86
17.395
16.716
15.819
14.699
13.36
11.813
10.073
8.169
6.143
4.028
1.861
-0.326
-2.512
-4.661
-6.747
-8.752
-10.636
-12.368
-13.928
-15.303
-16.508
-17.584
-18.566
-19.502
-20.454
-21.487
-22.694
-24.152
-25.917
-28.068
-30.626
-33.636
-37.219
-41.364
-45.976
-50.934
-55.894
-60.475
-64.45
-67.407
-68.848
-68.74
-67.171
-64.293
-60.851
-57.658
-55.24
-54.463
-56.242
-59.443
-62.704
-66.101
-67.669
-67.365
-65.865
-57.615
-39.382
-9.505
35.828
93.029
158.295
230.981
303.828
368.99
418.99
443.504
440.919
417.288
378.231
330.676
275.113
206.31
125.066
37.116
-45.134
-106.283
-139.839
-148.325
-141.052
-129.125
-118.663
-110.428
-102.275
-93.067
-83.58
-75.591
-71.274
-71.072
-73.964
-78.824
-84.109
-88.415
-91.223
-92.338
-91.806
-90.091
-87.642
-84.809
-82.081
-79.945
-78.626
-78.213
-78.672
-79.803
-81.452
-83.51
-85.807
-88.18
-90.494
-92.611
-94.448
-95.965
-97.116
-97.868
-98.204
-98.107
-97.583
-96.654
-95.343
-93.682
-91.702
-89.429
-86.9
-84.153
-81.236
-78.206
-75.105
-71.959
-68.794
-65.623
-62.455
-59.3
-56.157
-53.014
-49.864
-46.698
-43.512
-40.305
-37.075
-33.813
-30.514
-27.169
-23.772
-20.323
-16.821
-13.266
-9.66
-6.006
-2.312
1.412
5.158
8.918
12.685
16.451
20.206
23.942
27.648
31.315
34.931
38.485
41.962
45.348
48.629
51.792
54.821
57.703
60.423
62.967
65.321
67.474
69.412
71.123
72.596
73.821
74.789
75.491
75.921
76.075
75.948
75.538
74.846
73.872
72.62
71.094
69.301
67.248
64.943
62.398
59.623
56.632
53.438
50.058
46.508
42.806
38.97
35.019
30.973
26.852
22.676
18.464
14.236
10.013
5.813
1.654
-2.444
-6.465
-10.391
-14.208
-17.901
-21.456
-24.863
-28.11
-31.189
-34.093
-36.816
-39.354
-41.705
-43.865
-45.836
-47.619
-49.215
-50.628
-51.864
-52.927
-53.825
-54.566
-55.158
-55.609
-55.93
-56.13
-56.219
-56.207
-56.103
-55.919
-55.663
-55.345
-54.975
-54.56
-54.111
-53.634
-53.136
-52.625
-52.105
-51.582
-51.058
-50.536
-50.017
-49.502
-48.991
-48.482
-47.975
-47.466
-46.952
-46.431
-45.897
-45.346
-44.772
-44.168
-43.53
-42.851
-42.126
-41.347
-40.511
-39.611
-38.643
-37.605
-36.492
-35.303
-34.034
-32.684
-31.251
-29.738
-28.144
-26.471
-24.722
-22.902
-21.018
-19.08
-17.097
-15.081
-13.04
-10.989
-8.939
-6.903
-4.892
-2.915
-0.983
0.89
2.69
4.402
6.012
7.507
8.876
10.104
11.18
12.095
12.843
13.422
13.829
14.051
14.077
13.887
13.472
12.83
11.962
10.869
9.559
8.046
6.354
4.526
2.593
0.583
-1.481
-3.581
-5.686
-7.753
-9.744
-11.617
-13.336
-14.882
-16.248
-17.426
-18.436
-19.301
-20.05
-20.756
-21.49
-22.322
-23.332
-24.581
-26.119
-28.038
-30.463
-33.433
-36.898
-40.688
-44.482
-48.004
-51.057
-53.389
-54.67
-54.724
-53.646
-51.844
-50.104
-49.126
-49.224
-50.656
-53.73
-58.421
-64.187
-69.891
-73.681
-73.681
-68.566
-57.03
-37.78
-9.972
26.844
72.116
124.024
180.451
238.17
293.474
343.881
385.878
417.789
438.811
444.828
434.812
406.894
359.152
294.99
214.735
122.554
27.276
-62.036
-130.431
-169.22
-178.785
-165.012
-142.071
-120.267
-103.269
-91.734
-81.897
-71.924
-62.897
-56.003
-52.851
-53.414
-56.226
-59.68
-62.154
-62.903
-61.908
-59.352
-55.679
-51.371
-46.837
-42.604
-39.182
-36.797
-35.497
-35.189
-35.654
-36.717
-38.241
-40.05
-41.978
-43.882
-45.619
-47.095
-48.271
-49.106
-49.575
-49.667
-49.363
-48.667
-47.61
-46.229
-44.566
-42.656
-40.523
-38.2
-35.727
-33.151
-30.527
-27.894
-25.274
-22.682
-20.128
-17.616
-15.151
-12.725
-10.319
-7.915
-5.5
-3.065
-0.603
1.892
4.432
7.029
9.693
12.43
15.244
18.136
21.109
24.161
27.291
30.492
33.755
37.073
40.438
43.845
47.285
50.75
54.229
57.714
61.193
64.654
68.085
71.472
74.797
78.047
81.205
84.256
87.182
89.967
92.596
95.053
97.322
99.39
101.243
102.868
104.252
105.385
106.259
106.864
107.194
107.243
107.008
106.486
105.676
104.578
103.196
101.531
99.588
97.375
94.897
92.165
89.187
85.976
82.544
78.905
75.076
71.071
66.91
62.61
58.19
53.67
49.069
44.407
39.704
34.98
30.253
25.544
20.871
16.251
11.702
7.241
2.882
-1.359
-5.469
-9.436
-13.25
-16.898
-20.374
-23.669
-26.775
-29.688
-32.403
-34.916
-37.225
-39.328
-41.227
-42.922
-44.416
-45.713
-46.818
-47.737
-48.477
-49.044
-49.449
-49.699
-49.804
-49.774
-49.62
-49.351
-48.98
-48.516
-47.97
-47.354
-46.676
-45.948
-45.177
-44.374
-43.545
-42.7
-41.846
-40.989
-40.136
-39.294
-38.467
-37.661
-36.88
-36.126
-35.402
-34.708
-34.046
-33.412
-32.807
-32.228
-31.671
-31.133
-30.608
-30.092
-29.578
-29.062
-28.535
-27.99
-27.421
-26.819
-26.177
-25.489
-24.747
-23.945
-23.078
-22.14
-21.127
-20.037
-18.865
-17.609
-16.266
-14.836
-13.318
-11.713
-10.021
-8.245
-6.39
-4.462
-2.47
-0.426
1.663
3.782
5.92
8.061
10.192
12.301
14.378
16.41
18.384
20.284
22.095
23.8
25.385
26.832
28.125
29.252
30.198
30.956
31.524
31.893
32.059
32.01
31.725
31.192
30.403
29.349
28.033
26.463
24.652
22.629
20.435
18.101
15.665
13.162
10.612
8.05
5.501
2.988
0.559
-1.746
-3.895
-5.869
-7.683
-9.374
-10.968
-12.505
-14.041
-15.637
-17.383
-19.352
-21.586
-24.141
-27.028
-30.317
-34.15
-38.551
-43.465
-48.744
-54.026
-58.934
-63.211
-66.424
-68.113
-68.218
-66.731
-63.901
-60.683
-58.052
-56.857
-58.194
-61.775
-65.523
-68.058
-68.603
-68.601
-71.615
-77.372
-80.353
-70.192
-36.222
24.852
106.906
196.004
278.139
344.836
393.041
424.324
439.789
438.871
421.777
388.664
340.402
277.065
198.317
107.676
13.237
-70.987
-131.849
-164.276
-170.133
-159.926
-143.343
-124.297
-106.793
-90.195
-75.766
-68.123
-65.457
-66.946
-70.951
-72.942
-74.1
-75.297
-75.758
-76.542
-76.598
-74.889
-72.149
-68.72
-65.087
-61.979
-59.678
-58.246
-57.786
-58.242
-59.383
-61.041
-63.055
-65.22
-67.381
-69.407
-71.183
-72.645
-73.752
-74.464
-74.755
-74.612
-74.026
-73.015
-71.593
-69.779
-67.609
-65.113
-62.336
-59.328
-56.14
-52.83
-49.446
-46.017
-42.568
-39.119
-35.676
-32.249
-28.837
-25.431
-22.025
-18.618
-15.205
-11.784
-8.352
-4.905
-1.433
2.07
5.611
9.193
12.814
16.475
20.173
23.903
27.658
31.429
35.207
38.984
42.754
46.512
50.25
53.96
57.632
61.259
64.832
68.339
71.768
75.107
78.343
81.463
84.455
87.307
90.006
92.539
94.896
97.064
99.033
100.79
102.327
103.633
104.699
105.517
106.08
106.382
106.419
106.186
105.681
104.903
103.851
102.527
100.932
99.071
96.947
94.566
91.937
89.067
85.967
82.647
79.12
75.4
71.501
67.44
63.231
58.892
54.441
49.895
45.272
40.592
35.872
31.131
26.388
21.66
16.966
12.323
7.748
3.257
-1.135
-5.411
-9.559
-13.564
-17.415
-21.1
-24.608
-27.931
-31.06
-33.989
-36.711
-39.222
-41.52
-43.601
-45.465
-47.113
-48.546
-49.768
-50.783
-51.596
-52.214
-52.644
-52.894
-52.974
-52.893
-52.66
-52.288
-51.785
-51.165
-50.437
-49.615
-48.709
-47.731
-46.695
-45.61
-44.489
-43.343
-42.182
-41.016
-39.856
-38.711
-37.588
-36.497
-35.444
-34.436
-33.48
-32.579
-31.738
-30.958
-30.242
-29.588
-28.996
-28.463
-27.985
-27.558
-27.178
-26.837
-26.53
-26.25
-25.99
-25.741
-25.496
-25.246
-24.981
-24.694
-24.375
-24.014
-23.604
-23.135
-22.601
-21.995
-21.309
-20.538
-19.677
-18.719
-17.661
-16.498
-15.229
-13.852
-12.367
-10.773
-9.076
-7.281
-5.395
-3.429
-1.395
0.696
2.831
4.995
7.173
9.353
11.522
13.668
15.778
17.838
19.831
21.743
23.556
25.256
26.825
28.251
29.52
30.619
31.541
32.279
32.827
33.175
33.31
33.211
32.862
32.258
31.396
30.282
28.925
27.342
25.561
23.623
21.57
19.444
17.28
15.107
12.948
10.825
8.769
6.827
5.037
3.414
1.947
0.619
-0.587
-1.685
-2.702
-3.712
-4.827
-6.148
-7.767
-9.757
-12.133
-14.936
-18.278
-22.173
-26.541
-31.195
-35.754
-39.878
-43.416
-46.112
-47.619
-47.848
-46.817
-44.841
-42.768
-41.201
-40.422
-40.92
-43.02
-46.442
-50.666
-54.513
-55.911
-53.25
-45.178
-30.003
-6.494
25.782
66.669
114.809
167.494
222.072
275.678
324.607
365.111
393.681
407.241
404.806
387.763
357.415
314.796
259.175
188.758
106.146
18.936
-60.305
-118.332
-149.349
-156.211
-148.491
-136.704
-126.606
-118.648
-110.243
-100.012
-88.691
-78.177
-70.813
-67.269
-66.745
-68.255
-70.359
-71.7
-71.767
-70.397
-67.661
-63.999
-59.813
-55.396
-51.198
-47.715
-45.187
-43.705
-43.217
-43.499
-44.38
-45.748
-47.439
-49.293
-51.168
-52.91
-54.416
-55.648
-56.568
-57.154
-57.395
-57.268
-56.773
-55.944
-54.817
-53.432
-51.824
-50.018
-48.045
-45.945
-43.764
-41.557
-39.362
-37.199
-35.082
-33.018
-31.01
-29.062
-27.166
-25.301
-23.449
-21.595
-19.724
-17.832
-15.906
-13.931
-11.892
-9.775
-7.57
-5.27
-2.871
-0.367
2.244
4.962
7.785
10.705
13.718
16.819
20.003
23.265
26.597
29.99
33.435
36.922
40.439
43.973
47.51
51.032
54.526
57.974
61.359
64.664
67.871
70.961
73.917
76.719
79.35
81.792
84.028
86.041
87.817
89.343
90.605
91.593
92.297
92.709
92.823
92.636
92.143
91.344
90.239
88.831
87.125
85.127
82.846
80.289
77.471
74.402
71.098
67.574
63.848
59.939
55.864
51.646
47.305
42.864
38.344
33.77
29.163
24.548
19.946
15.381
10.873
6.444
2.113
-2.101
-6.181
-10.109
-13.871
-17.453
-20.843
-24.031
-27.007
-29.764
-32.297
-34.602
-36.676
-38.52
-40.133
-41.519
-42.681
-43.623
-44.353
-44.877
-45.205
-45.347
-45.313
-45.116
-44.769
-44.283
-43.675
-42.956
-42.142
-41.247
-40.284
-39.266
-38.208
-37.123
-36.021
-34.914
-33.814
-32.729
-31.67
-30.643
-29.657
-28.715
-27.823
-26.984
-26.201
-25.474
-24.803
-24.186
-23.621
-23.105
-22.633
-22.201
-21.802
-21.429
-21.074
-20.731
-20.389
-20.041
-19.676
-19.286
-18.86
-18.391
-17.868
-17.284
-16.63
-15.899
-15.084
-14.181
-13.184
-12.09
-10.896
-9.6
-8.202
-6.703
-5.107
-3.414
-1.632
0.235
2.175
4.178
6.23
8.318
10.43
12.548
14.655
16.736
18.775
20.761
22.678
24.51
26.24
27.849
29.321
30.64
31.786
32.744
33.499
34.038
34.351
34.438
34.288
33.896
33.25
32.334
31.139
29.66
27.895
25.85
23.538
20.974
18.19
15.229
12.12
8.9
5.597
2.23
-1.167
-4.562
-7.932
-11.231
-14.422
-17.481
-20.384
-23.132
-25.758
-28.281
-30.736
-33.174
-35.626
-38.156
-40.826
-43.677
-46.774
-50.141
-53.81
-57.895
-62.415
-67.283
-72.328
-77.175
-81.418
-84.826
-87.069
-87.733
-86.786
-84.351
-80.862
-77.342
-74.59
-73.108
-73.581
-76.449
-81.404
-87.785
-94.18
-98.231
-98.03
-91.842
-77.687
-54.264
-21.069
21.808
72.986
129.814
188.857
245.478
294.963
333.964
362.16
381.193
392.281
394.693
381.935
346.902
284.586
193.183
83.34
-30.347
-131.125
-199.157
-229.713
-226.108
-197.248
-163.541
-135.894
-118.464
-113.47
-112.149
-109.674
-105.597
-98.281
-91.838
-88.641
-87.824
-89.292
-90.764
-90.616
-89.073
-86.194
-82.495
-78.6
-74.712
-71.191
-68.533
-66.942
-66.452
-66.97
-68.28
-70.215
-72.631
-75.353
-78.174
-80.902
-83.408
-85.611
-87.471
-88.964
-90.061
-90.741
-90.999
-90.849
-90.313
-89.425
-88.215
-86.709
-84.943
-82.96
-80.808
-78.547
-76.218
-73.847
-71.452
-69.04
-66.614
-64.179
-61.728
-59.244
-56.716
-54.133
-51.483
-48.766
-45.975
-43.1
-40.131
-37.059
-33.876
-30.583
-27.177
-23.661
-20.038
-16.312
-12.493
-8.592
-4.621
-0.588
3.496
7.622
11.779
15.953
20.131
24.302
28.449
32.558
36.612
40.593
44.484
48.267
51.926
55.444
58.804
61.99
64.986
67.778
70.351
72.693
74.789
76.63
78.203
79.499
80.512
81.232
81.656
81.779
81.599
81.115
80.327
79.237
77.849
76.168
74.2
71.954
69.44
66.669
63.652
60.405
56.942
53.28
49.437
45.431
41.281
37.007
32.627
28.164
23.636
19.064
14.468
9.868
5.284
0.735
-3.76
-8.183
-12.517
-16.746
-20.853
-24.825
-28.648
-32.31
-35.798
-39.104
-42.218
-45.133
-47.841
-50.337
-52.619
-54.682
-56.526
-58.15
-59.556
-60.746
-61.723
-62.49
-63.053
-63.417
-63.588
-63.574
-63.382
-63.021
-62.499
-61.825
-61.008
-60.058
-58.985
-57.797
-56.503
-55.112
-53.632
-52.071
-50.438
-48.738
-46.98
-45.171
-43.317
-41.425
-39.501
-37.549
-35.576
-33.586
-31.582
-29.568
-27.548
-25.525
-23.501
-21.479
-19.463
-17.455
-15.458
-13.475
-11.509
-9.56
-7.633
-5.728
-3.849
-1.997
-0.175
1.612
3.361
5.063
6.71
8.296
9.812
11.248
12.597
13.849
14.999
16.042
16.975
17.792
18.488
19.058
19.493
19.788
19.935
19.928
19.762
19.433
18.94
18.284
17.468
16.495
15.367
14.077
12.613
10.966
9.132
7.117
4.928
2.583
0.099
-2.491
-5.147
-7.825
-10.481
-13.081
-15.599
-18.018
-20.322
-22.481
-24.449
-26.186
-27.68
-28.944
-30.003
-30.879
-31.592
-32.17
-32.692
-33.273
-34.022
-35.023
-36.342
-37.991
-40.008
-42.515
-45.563
-49.092
-52.919
-56.691
-60.057
-62.808
-64.669
-65.259
-64.427
-62.225
-59.031
-55.646
-52.741
-50.984
-51.122
-53.606
-58.435
-64.125
-68.578
-70.615
-68.487
-62.359
-52.312
-33.853
-4.774
37.241
94.24
159.519
226.806
290.392
341.898
378.902
400.324
403.692
390.14
360.666
315.092
256.386
187.186
110.406
33.995
-35.34
-90.974
-126.988
-145.855
-150.795
-145.651
-136.343
-123.466
-108.115
-93.031
-78.861
-67.608
-60.743
-57.624
-57.544
-59.519
-62.031
-63.797
-64.184
-62.896
-59.984
-55.923
-51.183
-46.128
-41.281
-37.174
-34.052
-32.031
-31.082
-30.984
-31.573
-32.729
-34.264
-36.022
-37.873
-39.672
-41.333
-42.813
-44.056
-45.031
-45.722
-46.1
-46.16
-45.921
-45.396
-44.621
-43.629
-42.439
-41.085
-39.598
-38.015
-36.387
-34.746
-33.108
-31.486
-29.88
-28.288
-26.709
-25.134
-23.539
-21.906
-20.218
-18.458
-16.618
-14.687
-12.65
-10.491
-8.197
-5.756
-3.165
-0.42
2.482
5.54
8.753
12.113
15.61
19.234
22.976
26.826
30.773
34.805
38.907
43.064
47.26
51.478
55.698
59.9
64.063
68.163
72.18
76.091
79.873
83.504
86.963
90.227
93.277
96.094
98.658
100.953
102.96
104.667
106.06
107.127
107.859
108.248
108.289
107.978
107.314
106.298
104.931
103.22
101.17
98.789
96.089
93.081
89.779
86.198
82.354
78.267
73.956
69.443
64.75
59.899
54.914
49.819
44.639
39.397
34.117
28.822
23.537
18.283
13.083
7.958
2.927
-1.99
-6.775
-11.412
-15.886
-20.184
-24.294
-28.206
-31.91
-35.4
-38.671
-41.716
-44.534
-47.121
-49.477
-51.603
-53.5
-55.17
-56.616
-57.844
-58.859
-59.668
-60.278
-60.695
-60.928
-60.985
-60.874
-60.604
-60.182
-59.618
-58.918
-58.091
-57.145
-56.087
-54.925
-53.664
-52.31
-50.87
-49.348
-47.748
-46.074
-44.33
-42.518
-40.643
-38.706
-36.711
-34.66
-32.557
-30.403
-28.204
-25.961
-23.678
-21.358
-19.003
-16.618
-14.208
-11.776
-9.326
-6.865
-4.398
-1.933
0.519
2.948
5.346
7.702
10.004
12.241
14.402
16.476
18.458
20.338
22.107
23.753
25.264
26.63
27.84
28.885
29.754
30.438
30.929
31.224
31.325
31.23
30.932
30.426
29.694
28.728
27.526
26.085
24.412
22.519
20.422
18.151
15.752
13.26
10.712
8.14
5.566
3.022
0.548
-1.827
-4.06
-6.115
-7.967
-9.601
-11.022
-12.264
-13.369
-14.391
-15.401
-16.469
-17.68
-19.129
-20.893
-23.061
-25.683
-28.819
-32.588
-37.001
-41.98
-47.34
-52.69
-57.636
-61.92
-65.19
-67.03
-67.383
-66.34
-64.276
-62.14
-60.648
-60.199
-61.392
-64.562
-69.283
-74.802
-79.718
-81.704
-78.896
-69.684
-52.117
-24.924
12.127
58.537
112.588
171.305
231.667
290.16
342.505
384.778
413.591
426.321
421.543
399.054
359.712
305.875
241.075
169.346
95.463
24.202
-40.061
-93.234
-133.511
-161.766
-178.096
-182.615
-175.383
-154.521
-123.742
-91.292
-64.2
-50.489
-51.154
-59.557
-70.074
-76.556
-76.702
-73.72
-69.718
-66.352
-64.249
-61.882
-58.752
-55.264
-51.886
-49.477
-48.389
-48.433
-49.426
-51.157
-53.436
-56.09
-58.929
-61.76
-64.422
-66.833
-68.935
-70.68
-72.039
-72.989
-73.509
-73.595
-73.257
-72.516
-71.403
-69.957
-68.203
-66.179
-63.923
-61.477
-58.894
-56.211
-53.449
-50.622
-47.735
-44.792
-41.794
-38.738
-35.608
-32.394
-29.083
-25.668
-22.147
-18.515
-14.765
-10.89
-6.885
-2.745
1.526
5.925
10.445
15.08
19.821
24.655
29.565
34.535
39.552
44.599
49.662
54.725
59.768
64.773
69.722
74.595
79.372
84.031
88.55
92.906
97.08
101.05
104.797
108.301
111.544
114.509
117.178
119.539
121.578
123.281
124.639
125.641
126.282
126.555
126.458
125.987
125.143
123.929
122.349
120.408
118.115
115.48
112.514
109.231
105.646
101.775
97.637
93.252
88.64
83.825
78.829
73.678
68.395
63.006
57.537
52.011
46.455
40.892
35.347
29.842
24.401
19.046
13.796
8.672
3.691
-1.128
-5.771
-10.223
-14.472
-18.506
-22.316
-25.894
-29.232
-32.326
-35.172
-37.767
-40.11
-42.203
-44.046
-45.644
-47
-48.12
-49.011
-49.68
-50.134
-50.383
-50.435
-50.297
-49.979
-49.491
-48.841
-48.039
-47.092
-46.01
-44.802
-43.475
-42.038
-40.497
-38.86
-37.132
-35.319
-33.428
-31.463
-29.429
-27.33
-25.172
-22.959
-20.697
-18.389
-16.04
-13.653
-11.233
-8.783
-6.307
-3.809
-1.294
1.234
3.77
6.304
8.829
11.334
13.81
16.249
18.638
20.967
23.226
25.407
27.503
29.506
31.406
33.192
34.852
36.376
37.753
38.97
40.016
40.882
41.56
42.046
42.339
42.435
42.329
42.014
41.474
40.699
39.686
38.431
36.941
35.229
33.311
31.22
28.995
26.673
24.291
21.884
19.477
17.107
14.8
12.579
10.488
8.558
6.813
5.27
3.911
2.701
1.609
0.585
-0.431
-1.505
-2.737
-4.214
-6.014
-8.225
-10.875
-14.012
-17.732
-22.021
-26.786
-31.844
-36.818
-41.362
-45.242
-48.097
-49.6
-49.711
-48.499
-46.336
-43.944
-41.813
-40.369
-40.231
-41.611
-44.125
-47
-48.866
-48
-42.955
-32.159
-13.764
13.405
49.471
93.6
144.028
198.324
253.666
306.597
352.861
388.358
410.066
415.956
404.8
376.517
332.401
274.919
208.045
136.799
65.68
-1.135
-59.138
-105.89
-140.484
-161.437
-169.68
-165.474
-148.683
-124.875
-99.256
-77.603
-65.733
-61.206
-61.11
-62.785
-62.28
-61.161
-60.583
-59.911
-59.931
-59.561
-57.914
-55.629
-52.924
-50.191
-48.084
-46.869
-46.635
-47.438
-49.144
-51.504
-54.309
-57.383
-60.533
-63.571
-66.376
-68.84
-70.898
-72.548
-73.776
-74.571
-74.937
-74.88
-74.416
-73.578
-72.401
-70.91
-69.151
-67.169
-65.013
-62.742
-60.399
-58.007
-55.585
-53.143
-50.682
-48.205
-45.705
-43.171
-40.592
-37.961
-35.27
-32.518
-29.699
-26.804
-23.826
-20.755
-17.586
-14.317
-10.951
-7.488
-3.934
-0.294
3.421
7.2
11.031
14.905
18.811
22.74
26.682
30.623
34.55
38.451
42.312
46.117
49.849
53.492
57.028
60.441
63.714
66.831
69.777
72.535
75.091
77.432
79.543
81.412
83.028
84.38
85.458
86.255
86.764
86.982
86.903
86.525
85.849
84.875
83.605
82.043
80.194
78.064
75.662
72.996
70.078
66.92
63.534
59.936
56.14
52.165
48.027
43.743
39.332
34.812
30.202
25.52
20.785
16.015
11.227
6.439
1.667
-3.072
-7.765
-12.396
-16.952
-21.422
-25.795
-30.059
-34.205
-38.226
-42.114
-45.863
-49.466
-52.921
-56.222
-59.369
-62.358
-65.189
-67.862
-70.377
-72.735
-74.936
-76.982
-78.876
-80.617
-82.207
-83.649
-84.944
-86.094
-87.1
-87.962
-88.681
-89.258
-89.692
-89.983
-90.13
-90.13
-89.982
-89.684
-89.235
-88.632
-87.871
-86.95
-85.867
-84.619
-83.205
-81.624
-79.875
-77.955
-75.866
-73.609
-71.186
-68.598
-65.851
-62.949
-59.899
-56.712
-53.397
-49.965
-46.427
-42.798
-39.09
-35.319
-31.499
-27.644
-23.769
-19.893
-16.037
-12.223
-8.47
-4.8
-1.234
2.206
5.497
8.619
11.559
14.302
16.832
19.124
21.152
22.893
24.337
25.475
26.303
26.819
27.026
26.936
26.58
25.981
25.159
24.119
22.861
21.395
19.747
17.961
16.081
14.125
12.101
10.019
7.889
5.708
3.456
1.069
-1.524
-4.348
-7.411
-10.7
-14.217
-18.008
-22.131
-26.631
-31.561
-36.973
-42.861
-49.147
-55.645
-62.02
-67.903
-72.969
-76.886
-79.32
-80.16
-79.605
-78.136
-76.559
-75.658
-75.851
-77.494
-81.035
-86.507
-93.334
-100.344
-105.596
-107.112
-103.564
-93.667
-75.944
-49.359
-13.575
30.715
81.496
136.209
192.39
247.096
296.832
337.953
366.981
381.36
379.693
361.579
327.601
279.572
220.443
154.178
85.468
18.859
-41.287
-91.252
-128.76
-152.931
-164.112
-163.867
-154.729
-139.549
-121.657
-104.365
-89.836
-79.251
-73.04
-70.829
-71.785
-74.948
-78.965
-82.345
-84.29
-84.51
-83.037
-80.307
-76.777
-72.826
-68.984
-65.798
-63.531
-62.281
-62.002
-62.479
-63.55
-65.092
-66.923
-68.892
-70.873
-72.73
-74.386
-75.798
-76.912
-77.699
-78.144
-78.22
-77.926
-77.281
-76.303
-75.03
-73.496
-71.723
-69.744
-67.592
-65.305
-62.935
-60.516
-58.068
-55.607
-53.139
-50.666
-48.194
-45.717
-43.217
-40.681
-38.095
-35.449
-32.739
-29.957
-27.091
-24.133
-21.07
-17.896
-14.609
-11.207
-7.691
-4.061
-0.322
3.518
7.448
11.458
15.538
19.68
23.872
28.101
32.355
36.62
40.88
45.121
49.325
53.474
57.55
61.532
65.404
69.146
72.739
76.166
79.409
82.451
85.275
87.865
90.208
92.288
94.094
95.612
96.834
97.752
98.358
98.648
98.618
98.268
97.598
96.612
95.313
93.708
91.805
89.615
87.148
84.418
81.439
78.228
74.801
71.177
67.376
63.417
59.321
55.108
50.8
46.418
41.982
37.513
33.032
28.557
24.11
19.707
15.368
11.109
6.946
2.894
-1.032
-4.82
-8.458
-11.937
-15.248
-18.383
-21.337
-24.105
-26.685
-29.075
-31.274
-33.284
-35.106
-36.743
-38.198
-39.475
-40.581
-41.52
-42.298
-42.922
-43.399
-43.736
-43.938
-44.013
-43.966
-43.802
-43.528
-43.147
-42.665
-42.086
-41.414
-40.653
-39.807
-38.881
-37.876
-36.795
-35.642
-34.417
-33.122
-31.759
-30.328
-28.829
-27.263
-25.632
-23.936
-22.177
-20.358
-18.478
-16.54
-14.547
-12.5
-10.402
-8.256
-6.065
-3.834
-1.569
0.723
3.03
5.343
7.649
9.935
12.189
14.397
16.545
18.625
20.626
22.54
24.357
26.067
27.658
29.122
30.445
31.617
32.629
33.469
34.133
34.615
34.91
35.017
34.933
34.654
34.168
33.461
32.518
31.335
29.909
28.244
26.35
24.243
21.949
19.506
16.958
14.346
11.717
9.106
6.539
4.045
1.661
-0.562
-2.581
-4.385
-5.984
-7.391
-8.615
-9.651
-10.523
-11.324
-12.175
-13.185
-14.473
-16.106
-18.15
-20.753
-23.982
-27.798
-32.064
-36.457
-40.626
-44.358
-47.367
-49.285
-50.058
-49.822
-49.001
-48.452
-48.799
-50.608
-54.586
-61.149
-70.235
-80.203
-88.644
-94.121
-94.799
-90.931
-82.787
-65.794
-37.479
4.661
62.69
129.772
199.499
266.017
321.389
363.658
391.569
402.862
397.638
375.347
336.291
283.37
220.354
151.726
82.419
16.828
-41.006
-87.788
-121.748
-142.632
-151.354
-149.688
-140.08
-125.179
-108.073
-91.838
-78.395
-68.68
-62.929
-60.707
-61.286
-63.89
-67.316
-70.207
-71.87
-72.039
-70.776
-68.521
-65.666
-62.531
-59.593
-57.342
-56.014
-55.692
-56.301
-57.616
-59.474
-61.731
-64.198
-66.711
-69.12
-71.325
-73.28
-74.953
-76.313
-77.339
-78.014
-78.332
-78.308
-77.955
-77.291
-76.353
-75.17
-73.782
-72.233
-70.562
-68.816
-67.031
-65.228
-63.422
-61.623
-59.831
-58.046
-56.264
-54.472
-52.658
-50.815
-48.929
-46.993
-44.999
-42.935
-40.789
-38.549
-36.204
-33.75
-31.183
-28.502
-25.705
-22.795
-19.776
-16.656
-13.442
-10.14
-6.757
-3.3
0.224
3.804
7.43
11.092
14.777
18.472
22.162
25.831
29.463
33.041
36.549
39.97
43.286
46.481
49.537
52.44
55.172
57.719
60.067
62.201
64.108
65.777
67.197
68.359
69.256
69.88
70.228
70.295
70.082
69.589
68.817
67.77
66.452
64.871
63.033
60.95
58.63
56.087
53.335
50.387
47.26
43.972
40.539
36.981
33.316
29.564
25.743
21.874
17.976
14.066
10.164
6.288
2.455
-1.318
-5.015
-8.621
-12.122
-15.505
-18.759
-21.873
-24.839
-27.65
-30.298
-32.78
-35.091
-37.23
-39.195
-40.985
-42.602
-44.047
-45.325
-46.438
-47.392
-48.192
-48.844
-49.356
-49.736
-49.99
-50.126
-50.153
-50.079
-49.91
-49.655
-49.322
-48.915
-48.443
-47.91
-47.322
-46.685
-46.001
-45.275
-44.508
-43.704
-42.862
-41.983
-41.068
-40.118
-39.131
-38.108
-37.046
-35.939
-34.789
-33.599
-32.356
-31.052
-29.68
-28.23
-26.708
-25.127
-23.476
-21.74
-19.952
-18.136
-16.309
-14.505
-12.703
-10.864
-9.024
-7.237
-5.392
-3.354
-1.223
0.997
3.32
5.426
8.142
12.267
16.628
20.86
22.814
19.925
15.002
9.912
7.442
11.43
18.458
25.631
30.968
31.192
28.633
25.649
22.75
21.366
20.654
19.53
18.202
16.54
14.631
12.717
10.694
8.472
6.12
3.671
1.129
-1.473
-4.102
-6.73
-9.297
-11.739
-14.041
-16.192
-18.19
-20.067
-21.842
-23.543
-25.219
-26.903
-28.658
-30.546
-32.61
-34.916
-37.485
-40.358
-43.657
-47.412
-51.545
-55.88
-60.021
-63.556
-66.256
-67.778
-67.687
-65.944
-62.674
-58.342
-54.053
-50.69
-48.812
-49.214
-52.477
-58.353
-66.188
-74.509
-80.71
-82.629
-78.356
-65.48
-42.128
-7.482
38.439
93.977
155.775
220.527
284.414
342.424
389.699
421.537
434.974
430.157
408.189
370.566
316.57
243.124
151.788
48.792
-52.759
-133.845
-183.574
-200.183
-190.805
-171.153
-151.15
-133.9
-119.029
-102.166
-82.573
-62.908
-45.561
-33.128
-26.604
-25.56
-29.118
-35.783
-43.828
-51.726
-58.59
-64.166
-68.233
-70.415
-70.642
-69.179
-66.717
-64.259
-62.363
-61.141
-60.677
-61.041
-62.234
-64.213
-66.693
-69.196
-71.444
-73.321
-74.776
-75.839
-76.505
-76.736
-76.559
-76.042
-75.235
-74.177
-72.878
-71.327
-69.539
-67.553
-65.418
-63.182
-60.87
-58.496
-56.069
-53.588
-51.055
-48.47
-45.821
-43.104
-40.314
-37.448
-34.505
-31.49
-28.397
-25.222
-21.954
-18.583
-15.105
-11.518
-7.826
-4.033
-0.144
3.833
7.886
12.004
16.176
20.394
24.647
28.927
33.222
37.519
41.806
46.07
50.295
54.465
58.565
62.578
66.488
70.281
73.941
77.454
80.807
83.985
86.975
89.766
92.347
94.705
96.831
98.716
100.351
101.731
102.85
103.703
104.29
104.608
104.659
104.443
103.964
103.226
102.233
100.994
99.516
97.808
95.88
93.744
91.413
88.9
86.22
83.387
80.418
77.327
74.13
70.843
67.482
64.062
60.6
57.111
53.61
50.112
46.631
43.181
39.775
36.425
33.143
29.938
26.82
23.797
20.878
18.07
15.377
12.805
10.359
8.04
5.852
3.795
1.87
0.075
-1.591
-3.129
-4.542
-5.834
-7.006
-8.063
-9.008
-9.845
-10.579
-11.212
-11.751
-12.2
-12.563
-12.845
-13.049
-13.18
-13.24
-13.234
-13.162
-13.028
-12.832
-12.575
-12.259
-11.885
-11.453
-10.963
-10.414
-9.806
-9.137
-8.405
-7.61
-6.748
-5.817
-4.815
-3.741
-2.594
-1.371
-0.071
1.307
2.761
4.293
5.901
7.585
9.346
11.181
13.086
15.058
17.094
19.188
21.335
23.525
25.75
27.996
30.255
32.515
34.764
36.989
39.175
41.311
43.387
45.392
47.315
49.142
50.858
52.448
53.9
55.201
56.336
57.293
58.059
58.628
58.999
59.168
59.129
58.871
58.38
57.645
56.662
55.428
53.944
52.222
50.274
48.13
45.835
43.422
40.92
38.356
35.747
33.116
30.498
27.917
25.405
22.993
20.698
18.546
16.55
14.673
12.872
11.093
9.255
7.312
5.229
2.945
0.437
-2.336
-5.435
-8.868
-12.686
-16.974
-21.735
-26.953
-32.513
-38.034
-43.104
-47.379
-50.412
-51.891
-51.714
-49.686
-46.119
-42.044
-38.448
-36.364
-35.897
-35.684
-34.723
-33.204
-33.591
-39.366
-50.607
-62.184
-63.381
-42.949
3.431
71.516
149.401
224.198
288.313
339.408
378.896
407.36
423.668
426.392
413.77
385.4
340.158
276.36
196.313
107.217
21.523
-46.837
-90.868
-112.391
-119.032
-120.002
-118.749
-113.506
-103.919
-90.371
-77.212
-70.713
-70.115
-73.539
-78.181
-79.607
-79.254
-78.526
-77.052
-75.851
-73.846
-70.12
-65.44
-60.157
-54.735
-49.842
-45.761
-42.622
-40.591
-39.65
-39.601
-40.29
-41.596
-43.374
-45.511
-47.913
-50.435
-52.925
-55.286
-57.432
-59.303
-60.872
-62.105
-62.969
-63.46
-63.598
-63.413
-62.942
-62.213
-61.244
-60.059
-58.696
-57.201
-55.632
-54.027
-52.407
-50.785
-49.166
-47.554
-45.949
-44.34
-42.704
-41.02
-39.273
-37.453
-35.554
-33.568
-31.481
-29.279
-26.951
-24.492
-21.898
-19.167
-16.299
-13.295
-10.16
-6.903
-3.536
-0.068
3.49
7.13
10.84
14.61
18.425
22.272
26.137
30.005
33.858
37.678
41.445
45.142
48.748
52.246
55.614
58.834
61.887
64.755
67.421
69.867
72.078
74.037
75.732
77.15
78.281
79.115
79.644
79.862
79.766
79.351
78.619
77.568
76.203
74.526
72.544
70.264
67.697
64.853
61.745
58.387
54.795
50.986
46.98
42.795
38.453
33.974
29.381
24.696
19.942
15.142
10.318
5.493
0.689
-4.072
-8.77
-13.385
-17.897
-22.289
-26.544
-30.646
-34.581
-38.337
-41.901
-45.264
-48.417
-51.353
-54.068
-56.556
-58.815
-60.844
-62.645
-64.218
-65.568
-66.698
-67.614
-68.322
-68.832
-69.15
-69.286
-69.251
-69.056
-68.71
-68.226
-67.614
-66.888
-66.057
-65.132
-64.125
-63.045
-61.901
-60.704
-59.462
-58.183
-56.874
-55.543
-54.195
-52.836
-51.471
-50.103
-48.735
-47.369
-46.008
-44.652
-43.302
-41.958
-40.62
-39.287
-37.961
-36.64
-35.323
-34.01
-32.699
-31.39
-30.082
-28.776
-27.469
-26.164
-24.861
-23.566
-22.283
-21.018
-19.777
-18.565
-17.391
-16.263
-15.185
-14.164
-13.203
-12.306
-11.481
-10.736
-10.082
-9.524
-9.072
-8.736
-8.524
-8.445
-8.505
-8.704
-9.041
-9.519
-10.143
-10.922
-11.871
-13.002
-14.317
-15.818
-17.502
-19.36
-21.379
-23.529
-25.77
-28.068
-30.388
-32.705
-34.997
-37.237
-39.402
-41.466
-43.389
-45.138
-46.695
-48.053
-49.221
-50.227
-51.091
-51.845
-52.567
-53.335
-54.248
-55.399
-56.853
-58.661
-60.877
-63.603
-66.889
-70.699
-74.886
-79.133
-83.102
-86.536
-89.163
-90.611
-90.665
-89.33
-86.882
-84.122
-81.889
-80.74
-81.276
-84.025
-89.044
-95.911
-103.533
-109.804
-112.448
-109.474
-98.79
-78.564
-47.677
-5.852
45.94
105.089
168.156
231.443
290.624
340.994
378.089
398.083
399.404
383.393
352
306.749
246.558
169.268
77.666
-19.617
-107.317
-169.598
-199.811
-201.508
-186.907
-169.293
-155.738
-146.8
-138.74
-129.03
-117.99
-107.489
-100.153
-96.702
-96.099
-97.174
-98.401
-98.516
-97.166
-94.285
-90.03
-84.923
-79.45
-73.98
-68.97
-64.871
-61.886
-60.077
-59.382
-59.581
-60.489
-61.97
-63.844
-65.937
-68.101
-70.175
-72.042
-73.65
-74.947
-75.9
-76.492
-76.7
-76.52
-75.978
-75.105
-73.934
-72.499
-70.823
-68.935
-66.873
-64.683
-62.417
-60.112
-57.789
-55.458
-53.124
-50.786
-48.447
-46.097
-43.714
-41.28
-38.781
-36.207
-33.553
-30.812
-27.973
-25.023
-21.954
-18.759
-15.438
-11.989
-8.415
-4.717
-0.901
3.024
7.045
11.151
15.333
19.579
23.879
28.22
32.587
36.966
41.342
45.699
50.019
54.283
58.473
62.569
66.554
70.409
74.116
77.658
81.017
84.178
87.125
89.845
92.322
94.544
96.5
98.179
99.574
100.676
101.481
101.982
102.178
102.066
101.648
100.925
99.9
98.578
96.965
95.069
92.9
90.469
87.789
84.873
81.736
78.395
74.867
71.169
67.32
63.339
59.246
55.058
50.796
46.48
42.127
37.757
33.388
29.037
24.722
20.458
16.26
12.143
8.121
4.207
0.412
-3.252
-6.777
-10.153
-13.372
-16.428
-19.316
-22.031
-24.571
-26.932
-29.115
-31.117
-32.94
-34.586
-36.055
-37.351
-38.477
-39.437
-40.235
-40.876
-41.364
-41.705
-41.902
-41.961
-41.886
-41.68
-41.347
-40.89
-40.313
-39.619
-38.811
-37.892
-36.865
-35.733
-34.498
-33.163
-31.73
-30.201
-28.577
-26.861
-25.052
-23.153
-21.168
-19.098
-16.947
-14.719
-12.416
-10.042
-7.602
-5.1
-2.54
0.072
2.732
5.433
8.167
10.924
13.692
16.46
19.213
21.938
24.619
27.244
29.798
32.268
34.645
36.917
39.074
41.104
42.995
44.733
46.303
47.694
48.891
49.885
50.668
51.232
51.573
51.692
51.588
51.261
50.705
49.902
48.84
47.52
45.943
44.119
42.065
39.798
37.346
34.754
32.069
29.337
26.601
23.876
21.172
18.508
15.917
13.444
11.133
8.992
7.003
5.166
3.473
1.924
0.51
-0.852
-2.275
-3.855
-5.684
-7.808
-10.215
-12.949
-16.114
-19.717
-23.692
-27.843
-31.769
-35.153
-37.831
-39.541
-39.974
-39.049
-36.792
-33.54
-30.171
-27.418
-25.777
-25.885
-28.113
-32.146
-37.358
-42.535
-45.598
-44.682
-38.062
-23.713
-0.231
32.662
74.5
123.762
177.633
233.123
286.792
334.412
372.078
396.591
405.454
397.243
371.972
330.716
275.794
210.813
139.877
67.428
-1.967
-63.789
-114.278
-151.273
-174.09
-183.206
-179.907
-166.161
-144.697
-119.367
-94.21
-71.814
-53.631
-40.441
-32.553
-30.156
-32.798
-38.68
-45.426
-51.599
-56.515
-59.919
-61.745
-61.6
-59.347
-55.697
-51.814
-48.501
-46.107
-44.632
-43.933
-44.125
-45.295
-47.226
-49.481
-51.633
-53.435
-54.83
-55.867
-56.534
-56.778
-56.581
-55.969
-55.015
-53.782
-52.299
-50.564
-48.569
-46.337
-43.906
-41.329
-38.66
-35.933
-33.165
-30.365
-27.539
-24.69
-21.826
-18.946
-16.035
-13.082
-10.079
-7.025
-3.922
-0.768
2.447
5.735
9.108
12.572
16.127
19.773
23.511
27.337
31.249
35.239
39.296
43.411
47.577
51.786
56.029
60.297
64.575
68.853
73.117
77.353
81.546
85.678
89.732
93.691
97.539
101.258
104.83
108.24
111.469
114.502
117.323
119.917
122.268
124.361
126.185
127.725
128.971
129.913
130.542
130.85
130.831
130.481
129.798
128.78
127.428
125.744
123.733
121.401
118.757
115.809
112.57
109.053
105.273
101.247
96.991
92.527
87.873
83.051
78.082
72.989
67.793
62.518
57.185
51.817
46.437
41.065
35.725
30.435
25.218
20.09
15.072
10.18
5.432
0.841
-3.579
-7.815
-11.855
-15.692
-19.317
-22.723
-25.906
-28.863
-31.592
-34.094
-36.368
-38.418
-40.248
-41.863
-43.269
-44.474
-45.485
-46.31
-46.959
-47.441
-47.764
-47.937
-47.97
-47.87
-47.647
-47.309
-46.865
-46.322
-45.687
-44.967
-44.17
-43.3
-42.365
-41.367
-40.31
-39.2
-38.037
-36.826
-35.568
-34.263
-32.914
-31.521
-30.085
-28.607
-27.087
-25.525
-23.919
-22.271
-20.582
-18.852
-17.081
-15.272
-13.429
-11.559
-9.669
-7.766
-5.857
-3.951
-2.059
-0.19
1.648
3.448
5.203
6.903
8.537
10.09
11.55
12.907
14.148
15.257
16.224
17.036
17.687
18.176
18.498
18.642
18.596
18.34
17.859
17.151
16.21
15.032
13.624
11.996
10.172
8.192
6.086
3.878
1.588
-0.773
-3.177
-5.584
-7.966
-10.285
-12.51
-14.624
-16.6
-18.427
-20.128
-21.74
-23.304
-24.882
-26.511
-28.234
-30.119
-32.215
-34.598
-37.322
-40.44
-44.072
-48.231
-52.836
-57.73
-62.558
-66.936
-70.611
-73.209
-74.271
-73.763
-71.855
-69.014
-66.303
-64.489
-63.994
-65.55
-69.685
-76.12
-84.15
-92.165
-97.557
-98.357
-92.92
-79.101
-55.279
-20.868
24.087
78.043
137.857
200.87
263.207
318.831
363.589
394.595
411.581
419.542
419.125
405.857
373.196
309.839
215.251
102.4
-10.569
-99.173
-150.092
-166.362
-158.312
-142.708
-130.312
-122.298
-116.346
-108.097
-96.638
-84.416
-73.985
-67.666
-65.814
-67.226
-70.726
-74.813
-78.038
-79.816
-79.936
-78.464
-75.892
-72.67
-69.139
-65.796
-63.159
-61.486
-60.877
-61.291
-62.493
-64.306
-66.596
-69.175
-71.885
-74.59
-77.148
-79.474
-81.519
-83.231
-84.579
-85.546
-86.106
-86.258
-86.019
-85.408
-84.465
-83.227
-81.721
-79.984
-78.05
-75.963
-73.776
-71.528
-69.242
-66.936
-64.619
-62.295
-59.971
-57.644
-55.298
-52.923
-50.504
-48.033
-45.507
-42.919
-40.26
-37.518
-34.684
-31.751
-28.719
-25.587
-22.356
-19.028
-15.608
-12.103
-8.526
-4.886
-1.191
2.549
6.326
10.127
13.942
17.758
21.563
25.344
29.085
32.771
36.386
39.912
43.334
46.636
49.801
52.813
55.656
58.313
60.77
63.013
65.026
66.798
68.314
69.564
70.538
71.23
71.632
71.738
71.547
71.056
70.265
69.177
67.795
66.123
64.169
61.94
59.447
56.7
53.713
50.499
47.074
43.454
39.658
35.702
31.607
27.391
23.076
18.68
14.226
9.734
5.224
0.718
-3.766
-8.207
-12.586
-16.884
-21.085
-25.171
-29.128
-32.942
-36.6
-40.09
-43.403
-46.529
-49.462
-52.196
-54.726
-57.049
-59.165
-61.071
-62.77
-64.264
-65.555
-66.649
-67.549
-68.262
-68.794
-69.153
-69.346
-69.381
-69.267
-69.011
-68.622
-68.11
-67.482
-66.747
-65.912
-64.985
-63.974
-62.887
-61.729
-60.506
-59.225
-57.889
-56.504
-55.073
-53.599
-52.084
-50.53
-48.939
-47.311
-45.647
-43.945
-42.205
-40.426
-38.608
-36.749
-34.85
-32.908
-30.922
-28.894
-26.823
-24.712
-22.561
-20.372
-18.148
-15.897
-13.624
-11.337
-9.043
-6.75
-4.467
-2.203
0.03
2.226
4.378
6.477
8.512
10.47
12.338
14.104
15.756
17.281
18.665
19.894
20.958
21.854
22.577
23.118
23.465
23.599
23.505
23.178
22.616
21.816
20.782
19.524
18.063
16.437
14.678
12.811
10.851
8.803
6.684
4.523
2.356
0.218
-1.871
-3.899
-5.852
-7.712
-9.491
-11.226
-12.985
-14.851
-16.873
-19.067
-21.437
-24.009
-26.822
-29.945
-33.437
-37.33
-41.672
-46.499
-51.813
-57.51
-63.257
-68.598
-73.073
-76.254
-77.83
-77.618
-75.464
-71.708
-67.406
-63.56
-61.232
-60.689
-60.766
-61.672
-64.34
-69.908
-80.85
-94.579
-104.036
-102.266
-80.683
-37.67
20.21
86.6
153.327
215.679
274.738
329.308
376.852
413.826
434.832
437.459
422.929
393.249
350.214
293.128
220.073
132.837
39.029
-47.121
-110.937
-144.752
-150.633
-139.854
-124.422
-111.694
-103.053
-94.861
-85.037
-73.993
-63.407
-56.164
-53.165
-53.385
-55.731
-58.639
-60.653
-61.291
-60.354
-57.826
-54.182
-49.925
-45.432
-41.213
-37.775
-35.34
-34.004
-33.746
-34.345
-35.616
-37.419
-39.546
-41.829
-44.127
-46.292
-48.232
-49.893
-51.214
-52.161
-52.717
-52.855
-52.575
-51.897
-50.84
-49.446
-47.753
-45.793
-43.607
-41.236
-38.727
-36.139
-33.514
-30.878
-28.252
-25.646
-23.066
-20.52
-18.004
-15.505
-13.011
-10.51
-7.995
-5.461
-2.903
-0.31
2.329
5.025
7.788
10.618
13.519
16.494
19.543
22.664
25.854
29.104
32.409
35.763
39.164
42.604
46.079
49.579
53.096
56.622
60.148
63.662
67.15
70.599
73.995
77.324
80.572
83.723
86.762
89.674
92.443
95.054
97.493
99.744
101.793
103.625
105.227
106.586
107.692
108.535
109.104
109.392
109.392
109.099
108.51
107.623
106.436
104.951
103.17
101.098
98.741
96.105
93.2
90.036
86.625
82.981
79.12
75.056
70.806
66.389
61.822
57.126
52.319
47.424
42.458
37.444
32.402
27.352
22.315
17.311
12.358
7.474
2.679
-2.013
-6.585
-11.022
-15.313
-19.445
-23.406
-27.188
-30.783
-34.183
-37.383
-40.38
-43.171
-45.753
-48.126
-50.29
-52.248
-54.002
-55.555
-56.909
-58.072
-59.047
-59.842
-60.462
-60.916
-61.209
-61.35
-61.347
-61.208
-60.941
-60.552
-60.049
-59.439
-58.729
-57.925
-57.033
-56.058
-55.005
-53.879
-52.685
-51.427
-50.107
-48.731
-47.299
-45.817
-44.288
-42.715
-41.101
-39.448
-37.762
-36.049
-34.316
-32.568
-30.81
-29.049
-27.291
-25.544
-23.812
-22.097
-20.404
-18.738
-17.104
-15.512
-13.969
-12.482
-11.06
-9.712
-8.447
-7.276
-6.201
-5.224
-4.348
-3.578
-2.927
-2.408
-2.035
-1.81
-1.737
-1.817
-2.044
-2.407
-2.886
-3.443
-4.051
-4.694
-5.356
-6.036
-6.718
-7.374
-7.983
-8.525
-8.981
-9.344
-9.601
-9.743
-9.804
-9.835
-9.895
-10.063
-10.375
-10.847
-11.532
-12.468
-13.703
-15.313
-17.31
-19.724
-22.659
-26.115
-30.008
-34.165
-38.167
-41.582
-44.15
-45.498
-45.24
