Name,Aleksandre Beruashvili
Date of Birth,"Dec 20, 1998"
Recorded Date,2024-05-22 13:36:32 +0400
Classification,Sinus Rhythm
Symptoms,
Software Version,1.90
Device,"Watch7,2"
Sample Rate,512 hertz


Lead,Lead I
Unit,µV

-79.403
-120.849
-140.977
-142.202
-133.625
-122.628
-116.655
-115.728
-114.045
-109.435
-100.549
-87.738
-74.549
-62.346
-50.802
-39.922
-28.858
-16.768
-3.713
10.329
25.589
42.016
59.534
78.267
98.231
119.308
141.54
164.96
189.451
214.777
240.623
266.489
291.732
315.868
338.411
358.957
377.505
394.477
410.194
424.875
439.212
453.735
469.784
490.079
515.279
544.366
575.547
602.429
620.164
629.099
630.14
633.331
651.54
685.576
729.132
758.311
735.352
637.344
458.176
218.187
-33.878
-253.556
-410.964
-497.37
-531.127
-534.308
-520.793
-496.833
-459.901
-410.353
-358.411
-316.756
-294.488
-291.763
-298.504
-303.905
-302.046
-293.978
-286.818
-285.209
-289.865
-298.496
-305.889
-309.316
-308.795
-304.748
-298.497
-291.239
-283.326
-275.555
-269.164
-264.671
-262.286
-262.054
-263.496
-266.123
-269.552
-273.152
-276.298
-278.684
-280.093
-280.427
-279.718
-277.899
-274.928
-270.871
-265.789
-259.758
-252.847
-245.097
-236.603
-227.532
-218.08
-208.47
-198.868
-189.364
-180.043
-170.973
-162.216
-153.849
-145.906
-138.385
-131.296
-124.647
-118.442
-112.691
-107.369
-102.42
-97.782
-93.387
-89.182
-85.139
-81.231
-77.434
-73.734
-70.113
-66.568
-63.105
-59.721
-56.407
-53.153
-49.943
-46.771
-43.638
-40.545
-37.492
-34.479
-31.503
-28.563
-25.658
-22.786
-19.942
-17.12
-14.313
-11.518
-8.734
-5.961
-3.201
-0.456
2.273
4.982
7.668
10.328
12.959
15.559
18.127
20.661
23.159
25.619
28.04
30.42
32.758
35.052
37.3
39.501
41.654
43.759
45.814
47.818
49.773
51.679
53.536
55.346
57.108
58.825
60.498
62.128
63.716
65.265
66.777
68.253
69.696
71.107
72.488
73.841
75.167
76.467
77.74
78.988
80.21
81.406
82.575
83.717
84.831
85.916
86.972
87.999
88.994
89.957
90.887
91.783
92.642
93.464
94.247
94.988
95.687
96.34
96.947
97.504
98.01
98.463
98.86
99.199
99.479
99.699
99.855
99.947
99.974
99.935
99.83
99.658
99.419
99.114
98.742
98.304
97.801
97.235
96.606
95.916
95.167
94.362
93.503
92.594
91.638
90.638
89.598
88.522
87.416
86.284
85.13
83.96
82.78
81.595
80.411
79.233
78.067
76.918
75.791
74.69
73.621
72.588
71.593
70.64
69.731
68.87
68.057
67.294
66.58
65.916
65.3
64.73
64.201
63.707
63.24
62.791
62.353
61.915
61.467
60.999
60.501
59.965
59.384
58.748
58.046
57.265
56.392
55.416
54.327
53.115
51.77
50.281
48.645
46.864
44.937
42.861
40.624
38.203
35.584
32.763
29.737
26.511
23.096
19.503
15.762
11.922
8.029
4.124
0.24
-3.612
-7.403
-11.087
-14.611
-17.902
-20.909
-23.606
-25.961
-27.958
-29.61
-30.942
-32.02
-32.946
-33.808
-34.692
-35.693
-36.882
-38.354
-40.204
-42.545
-45.568
-49.356
-53.854
-58.886
-64.06
-68.929
-73.166
-76.35
-77.893
-77.515
-75.272
-71.609
-67.723
-64.792
-63.507
-64.511
-68.326
-74.91
-83.618
-92.887
-99.718
-100.929
-94.066
-76.746
-46.93
-3.281
54.735
125.33
203.851
285.155
365.302
442.943
518.14
588.279
646.541
681.316
682.544
647.833
582.023
497.257
403.61
304.91
203.823
102.653
9.738
-62.79
-108.285
-127.207
-128.385
-122.829
-116.454
-110.373
-102.11
-90.357
-77.171
-65.186
-56.65
-52.36
-51.598
-53.566
-57.587
-62.449
-66.511
-68.838
-69.282
-68.062
-65.698
-62.449
-58.143
-53.155
-48.423
-44.515
-41.703
-40.036
-39.21
-39.103
-39.875
-41.411
-43.358
-45.434
-47.323
-48.81
-49.9
-50.544
-50.645
-50.183
-49.153
-47.565
-45.494
-42.997
-40.093
-36.815
-33.184
-29.223
-24.989
-20.541
-15.938
-11.249
-6.515
-1.76
2.994
7.741
12.478
17.211
21.966
26.778
31.674
36.676
41.801
47.061
52.479
58.078
63.875
69.89
76.139
82.638
89.413
96.478
103.84
111.496
119.434
127.628
136.047
144.659
153.425
162.316
171.309
180.396
189.582
198.872
208.275
217.779
227.358
236.986
246.639
256.302
265.962
275.625
285.311
295.049
304.883
314.828
324.873
334.973
345.047
354.992
364.69
374.041
382.97
391.41
399.3
406.579
413.187
419.045
424.066
428.141
431.147
432.991
433.616
433.017
431.24
428.366
424.517
419.799
414.302
408.107
401.278
393.88
385.976
377.64
368.95
360.011
350.953
341.887
332.905
324.065
315.384
306.851
298.425
290.074
281.776
273.518
265.309
257.162
249.097
241.135
233.301
225.601
218.026
210.567
203.216
195.981
188.885
181.962
175.257
168.813
162.664
156.839
151.354
146.215
141.422
136.968
132.836
129.015
125.499
122.279
119.353
116.709
114.334
112.212
110.323
108.646
107.16
105.845
104.681
103.653
102.745
101.947
101.248
100.639
100.111
99.652
99.253
98.9
98.585
98.297
98.026
97.763
97.499
97.23
96.949
96.652
96.336
95.998
95.634
95.244
94.826
94.379
93.904
93.401
92.87
92.313
91.731
91.126
90.501
89.857
89.196
88.522
87.835
87.137
86.431
85.717
84.998
84.275
83.549
82.822
82.095
81.37
80.649
79.933
79.224
78.521
77.828
77.143
76.468
75.803
75.149
74.507
73.875
73.256
72.648
72.052
71.468
70.895
70.333
69.781
69.238
68.705
68.18
67.663
67.154
66.651
66.155
65.664
65.179
64.698
64.221
63.748
63.279
62.813
62.35
61.89
61.433
60.978
60.527
60.077
59.63
59.185
58.741
58.299
57.858
57.417
56.977
56.537
56.098
55.66
55.222
54.785
54.35
53.916
53.484
53.055
52.627
52.203
51.782
51.366
50.953
50.546
50.144
49.748
49.357
48.971
48.591
48.216
47.846
47.48
47.118
46.76
46.406
46.056
45.71
45.368
45.029
44.695
44.365
44.04
43.719
43.402
43.091
42.786
42.487
42.195
41.911
41.637
41.373
41.122
40.885
40.664
40.46
40.276
40.114
39.976
39.867
39.789
39.746
39.741
39.778
39.862
39.996
40.184
40.428
40.733
41.101
41.535
42.038
42.611
43.257
43.975
44.769
45.637
46.58
47.595
48.681
49.836
51.054
52.332
53.661
55.033
56.439
57.869
59.312
60.758
62.193
63.606
64.987
66.325
67.609
68.827
69.965
71.007
71.94
72.75
73.425
73.952
74.321
74.522
74.553
74.413
74.097
73.597
72.893
71.97
70.82
69.438
67.821
65.979
63.922
61.673
59.274
56.764
54.183
51.561
48.916
46.266
43.646
41.104
38.696
36.482
34.494
32.766
31.326
30.171
29.278
28.587
28.002
27.443
26.841
26.125
25.239
24.124
22.69
20.858
18.495
15.404
11.522
6.891
1.632
-3.894
-9.254
-14.042
-17.679
-19.5
-19.266
-17.035
-13.112
-8.57
-4.703
-2.535
-3.258
-7.082
-12.535
-18.076
-22.714
-27.115
-33.191
-40.443
-43.493
-31.423
6.698
75.432
170.696
279.249
386.776
484.083
566.768
634.863
687.652
721.635
732.689
718.611
681.277
624.242
551.156
463.029
358.967
242.806
124.262
18.812
-57.773
-98.844
-108.645
-100.053
-86.778
-76.738
-71.295
-67.079
-61.876
-56.078
-51.319
-50.036
-52.705
-57.921
-64.149
-69.584
-72.784
-73.359
-71.331
-67.021
-61.201
-54.608
-47.85
-41.589
-36.4
-32.573
-30.221
-29.295
-29.579
-30.874
-33.006
-35.78
-39.008
-42.522
-46.159
-49.748
-53.127
-56.171
-58.785
-60.908
-62.509
-63.568
-64.077
-64.069
-63.593
-62.699
-61.437
-59.845
-57.956
-55.82
-53.497
-51.052
-48.555
-46.048
-43.556
-41.092
-38.659
-36.252
-33.858
-31.449
-28.985
-26.438
-23.782
-20.996
-18.065
-14.968
-11.679
-8.177
-4.442
-0.458
3.788
8.306
13.104
18.186
23.549
29.191
35.1
41.27
47.692
54.354
61.244
68.346
75.643
83.114
90.737
98.486
106.332
114.243
122.187
130.127
138.027
145.85
153.555
161.105
168.458
175.575
182.415
188.939
195.108
200.883
206.229
211.108
215.488
219.336
222.623
225.321
227.405
228.854
229.647
229.769
229.205
227.947
225.987
223.323
219.956
215.889
211.131
205.693
199.592
192.845
185.475
177.507
168.971
159.896
150.316
140.268
129.788
118.917
107.696
96.166
84.37
72.353
60.159
47.831
35.414
22.953
10.489
-1.934
-14.274
-26.492
-38.547
-50.402
-62.022
-73.373
-84.423
-95.144
-105.508
-115.492
-125.075
-134.238
-142.965
-151.245
-159.066
-166.422
-173.308
-179.723
-185.667
-191.144
-196.159
-200.721
-204.838
-208.524
-211.791
-214.655
-217.132
-219.24
-220.999
-222.429
-223.551
-224.388
-224.961
-225.295
-225.413
-225.339
-225.097
-224.71
-224.201
-223.593
-222.909
-222.169
-221.394
-220.603
-219.813
-219.043
-218.308
-217.622
-216.999
-216.45
-215.985
-215.613
-215.343
-215.18
-215.131
-215.2
-215.389
-215.702
-216.139
-216.701
-217.386
-218.194
-219.122
-220.166
-221.322
-222.584
-223.949
-225.408
-226.957
-228.587
-230.292
-232.065
-233.898
-235.784
-237.715
-239.685
-241.687
-243.713
-245.759
-247.817
-249.884
-251.955
-254.024
-256.089
-258.146
-260.192
-262.224
-264.239
-266.236
-268.212
-270.166
-272.096
-274.002
-275.882
-277.737
-279.567
-281.371
-283.151
-284.906
-286.638
-288.347
-290.034
-291.702
-293.35
-294.982
-296.597
-298.197
-299.785
-301.36
-302.924
-304.477
-306.021
-307.555
-309.08
-310.595
-312.101
-313.597
-315.083
-316.559
-318.024
-319.479
-320.923
-322.355
-323.777
-325.188
-326.588
-327.976
-329.355
-330.723
-332.082
-333.433
-334.775
-336.11
-337.438
-338.76
-340.077
-341.389
-342.697
-344.002
-345.303
-346.602
-347.898
-349.191
-350.483
-351.772
-353.058
-354.34
-355.619
-356.893
-358.162
-359.424
-360.677
-361.921
-363.152
-364.369
-365.569
-366.749
-367.903
-369.029
-370.121
-371.175
-372.185
-373.146
-374.051
-374.895
-375.673
-376.379
-377.007
-377.552
-378.008
-378.372
-378.638
-378.802
-378.862
-378.815
-378.658
-378.392
-378.016
-377.533
-376.944
-376.252
-375.461
-374.573
-373.594
-372.53
-371.384
-370.164
-368.879
-367.541
-366.164
-364.766
-363.361
-361.965
-360.595
-359.267
-357.995
-356.791
-355.66
-354.612
-353.657
-352.804
-352.068
-351.459
-350.979
-350.631
-350.41
-350.307
-350.313
-350.414
-350.591
-350.835
-351.137
-351.496
-351.925
-352.428
-353.003
-353.643
-354.324
-355.024
-355.725
-356.408
-357.056
-357.658
-358.18
-358.579
-358.806
-358.785
-358.471
-357.797
-356.633
-354.94
-352.727
-350.052
-347.125
-344.116
-340.985
-337.716
-334.296
-330.464
-325.998
-320.594
-313.632
-304.786
-294.165
-281.933
-268.454
-254.391
-240.212
-226.482
-214.103
-203.49
-194.606
-187.362
-181.487
-176.736
-173.159
-170.717
-169.098
-168.279
-168.442
-169.566
-171.182
-171.978
-170.114
-163.666
-150.656
-128.944
-96.254
-50.632
7.749
76.162
151.581
231.38
315.255
404.062
494.5
578.488
643.47
677.126
674.198
637.754
578.225
507.344
432.942
358.36
283.074
207.291
134.061
67.876
13.625
-26.325
-52.456
-66.391
-70.47
-67.014
-58.356
-47.343
-36.774
-28.384
-22.834
-20.051
-19.422
-20.241
-21.705
-22.647
-21.828
-18.567
-12.78
-4.812
4.679
15.04
25.723
36.115
45.594
53.798
60.586
65.982
70.163
73.305
75.541
77.041
77.985
78.504
78.74
78.844
78.957
79.245
79.841
80.824
82.255
84.168
86.571
89.457
92.789
96.51
100.572
104.936
109.565
114.433
119.495
124.698
129.985
135.299
140.601
145.875
151.109
156.303
161.47
166.628
171.812
177.059
182.403
187.868
193.477
199.248
205.202
211.361
217.745
224.372
231.256
238.408
245.836
253.542
261.528
269.789
278.317
287.099
296.121
305.371
314.832
324.487
334.317
344.297
354.405
364.614
374.894
385.214
395.539
405.832
416.058
426.176
436.147
445.931
455.487
464.774
473.752
482.38
490.619
498.431
505.779
512.629
518.946
524.701
529.864
534.408
538.312
541.555
544.12
545.992
547.162
547.622
547.369
546.401
544.724
542.342
539.268
535.513
531.095
526.035
520.356
514.086
507.255
499.894
492.039
483.727
474.997
465.89
456.448
446.714
436.732
426.547
416.204
405.747
395.222
384.672
374.141
363.67
353.301
343.072
333.021
323.184
313.593
304.281
295.276
286.605
278.292
270.359
262.824
255.705
249.013
242.761
236.955
231.601
226.701
222.255
218.261
214.712
211.603
208.922
206.659
204.801
203.332
202.236
201.494
201.088
200.996
201.199
201.673
202.397
203.349
204.506
205.845
207.345
208.983
210.737
212.587
214.512
216.492
218.508
220.542
222.577
224.598
226.59
228.54
230.435
232.266
234.023
235.696
237.281
238.77
240.16
241.446
242.627
243.701
244.668
245.53
246.289
246.947
247.508
247.976
248.357
248.655
248.878
249.031
249.121
249.156
249.142
249.088
249.002
248.891
248.764
248.627
248.487
248.353
248.231
248.126
248.045
247.994
247.977
248
248.068
248.185
248.354
248.58
248.867
249.217
249.634
250.118
250.672
251.298
251.995
252.765
253.608
254.522
255.506
256.56
257.681
258.868
260.116
261.423
262.785
264.198
265.659
267.164
268.71
270.292
271.906
273.548
275.215
276.903
278.606
280.32
282.04
283.761
285.475
287.176
288.857
290.509
292.125
293.698
295.221
296.687
298.091
299.429
300.696
301.888
303.002
304.032
304.972
305.82
306.573
307.229
307.785
308.239
308.588
308.837
308.988
309.043
309
308.85
308.593
308.239
307.804
307.307
306.774
306.229
305.709
305.269
304.953
304.805
304.86
305.13
305.643
306.432
307.535
309.001
310.853
313.079
315.662
318.581
321.791
325.243
328.848
332.465
335.986
339.334
342.444
345.289
347.813
349.928
351.551
352.601
353.028
352.832
352.015
350.581
348.593
346.144
343.392
340.566
337.824
335.27
333
331.096
329.686
328.927
328.979
330.056
332.413
336.321
342.059
349.807
359.511
371.061
384.172
398.203
412.426
425.929
437.537
446.224
451.465
452.959
450.492
444.427
435.52
424.596
414.375
408.972
409.655
416.672
426.813
430.106
422.258
404.458
382.88
375.561
392.36
427.362
460.767
453.287
369.33
194.357
-61.43
-358.701
-646.941
-885.181
-1050.114
-1140.377
-1170.729
-1156.128
-1109.002
-1041.64
-962.824
-886.845
-829.183
-794.584
-781.801
-780.347
-775.292
-760.965
-738.32
-713.915
-696.923
-690.066
-690.368
-691.749
-687.854
-677.145
-663.44
-651.761
-644.092
-635.747
-613.336
-564.147
-482.59
-372.805
-253.317
-142.65
-52.937
9.543
50.909
76.776
88.449
87.463
70.903
36.527
-14.558
-81.705
-163.699
-254.227
-343.983
-423.39
-481.645
-516.291
-533.422
-539.186
-541.248
-542.657
-540.479
-534.134
-524.125
-512.247
-502.118
-495.117
-490.946
-489.086
-488.506
-488.295
-487.718
-485.838
-482.068
-476.425
-469.261
-461.126
-452.576
-444.063
-436.043
-429.005
-423.243
-418.828
-415.699
-413.672
-412.559
-412.214
-412.465
-413.118
-414.031
-415.066
-416.082
-416.95
-417.513
-417.643
-417.262
-416.318
-414.78
-412.636
-409.888
-406.56
-402.704
-398.372
-393.607
-388.451
-382.935
-377.106
-371.021
-364.74
-358.326
-351.823
-345.254
-338.639
-331.986
-325.296
-318.564
-311.772
-304.894
-297.911
-290.808
-283.574
-276.201
-268.676
-260.985
-253.115
-245.055
-236.797
-228.336
-219.668
-210.794
-201.714
-192.436
-182.969
-173.325
-163.518
-153.559
-143.463
-133.245
-122.922
-112.516
-102.045
-91.533
-81.005
-70.487
-60.01
-49.604
-39.301
-29.134
-19.136
-9.344
0.209
9.487
18.455
27.078
35.323
43.156
50.545
57.462
63.877
69.765
75.102
79.866
84.038
87.603
90.547
92.861
94.538
95.574
95.969
95.725
94.849
93.35
91.239
88.533
85.25
81.41
77.037
72.158
66.802
60.999
54.784
48.191
41.257
34.02
26.519
18.793
10.882
2.828
-5.331
-13.555
-21.804
-30.041
-38.228
-46.33
-54.312
-62.142
-69.79
-77.226
-84.425
-91.364
-98.019
-104.373
-110.408
-116.111
-121.47
-126.474
-131.118
-135.394
-139.302
-142.84
-146.01
-148.817
-151.265
-153.364
-155.121
-156.549
-157.661
-158.469
-158.988
-159.235
-159.226
-158.977
-158.507
-157.833
-156.974
-155.947
-154.771
-153.462
-152.039
-150.517
-148.912
-147.239
-145.512
-143.745
-141.949
-140.137
-138.319
-136.505
-134.705
-132.927
-131.178
-129.464
-127.793
-126.168
-124.592
-123.07
-121.602
-120.192
-118.839
-117.544
-116.307
-115.126
-114
-112.929
-111.908
-110.937
-110.011
-109.128
-108.285
-107.478
-106.705
-105.961
-105.246
-104.555
-103.886
-103.236
-102.604
-101.986
-101.381
-100.784
-100.195
-99.61
-99.027
-98.443
-97.857
-97.267
-96.669
-96.062
-95.445
-94.815
-94.17
-93.509
-92.83
-92.132
-91.413
-90.672
-89.909
-89.122
-88.313
-87.479
-86.622
-85.74
-84.835
-83.906
-82.952
-81.975
-80.974
-79.949
-78.902
-77.833
-76.744
-75.635
-74.509
-73.368
-72.214
-71.05
-69.879
-68.705
-67.53
-66.359
-65.195
-64.043
-62.908
-61.794
-60.705
-59.646
-58.621
-57.636
-56.692
-55.795
-54.947
-54.151
-53.41
-52.726
-52.102
-51.538
-51.037
-50.6
-50.227
-49.919
-49.676
-49.496
-49.379
-49.321
-49.321
-49.374
-49.476
-49.621
-49.805
-50.019
-50.258
-50.514
-50.777
-51.039
-51.29
-51.52
-51.719
-51.877
-51.984
-52.027
-51.998
-51.887
-51.685
-51.383
-50.973
-50.448
-49.8
-49.025
-48.116
-47.07
-45.882
-44.548
-43.068
-41.441
-39.667
-37.749
-35.69
-33.497
-31.179
-28.747
-26.211
-23.586
-20.886
-18.127
-15.323
-12.492
-9.649
-6.809
-3.991
-1.214
1.5
4.132
6.662
9.074
11.349
13.47
15.421
17.189
18.769
20.153
21.328
22.277
22.973
23.398
23.542
23.402
22.974
22.26
21.267
20.015
18.547
16.904
15.124
13.238
11.267
9.242
7.216
5.254
3.425
1.788
0.371
-0.806
-1.707
-2.323
-2.663
-2.763
-2.719
-2.628
-2.57
-2.643
-2.936
-3.511
-4.484
-6.02
-8.212
-11.113
-14.625
-18.433
-22.283
-26.015
-29.383
-32.048
-33.68
-33.977
-33.086
-31.795
-30.75
-30.275
-30.706
-32.401
-35.784
-41.325
-47.693
-51.244
-49.025
-39.807
-25.639
-10.921
3.691
23.669
58.634
116.864
200.264
301.303
408.014
512.443
608.144
691.877
759.279
798.781
803.393
770.733
704.665
617.942
518.923
414.06
310.01
212.195
130.26
71.386
35.78
17.765
8.559
2.178
-2.54
-3.138
1.688
10.218
19.229
25.299
27.137
25.428
21.301
15.962
10.496
5.923
3.286
3.152
5.429
9.602
14.95
20.85
26.792
32.249
36.734
39.953
41.837
42.489
42.116
40.91
39.03
36.636
33.892
30.953
27.962
25.078
22.456
20.214
18.437
17.182
16.476
16.338
16.773
17.75
19.217
21.123
23.418
26.067
29.037
32.28
35.74
39.35
43.043
46.774
50.518
54.255
57.978
61.687
65.387
69.102
72.863
76.694
80.614
84.638
88.776
93.045
97.465
102.051
106.82
111.785
116.952
122.332
127.929
133.745
139.777
146.02
152.464
159.102
165.923
172.917
180.072
187.373
194.804
202.347
209.98
217.683
225.428
233.187
240.932
248.63
256.25
263.757
271.116
278.293
285.25
291.954
298.367
304.453
310.178
315.507
320.407
324.847
328.796
332.226
335.111
337.426
339.151
340.265
340.754
340.604
339.805
338.349
336.234
333.458
330.024
325.938
321.21
315.852
309.881
303.315
296.177
288.492
280.288
271.595
262.446
252.876
242.921
232.62
222.012
211.139
200.041
188.761
177.341
165.823
154.249
142.661
131.099
119.604
108.213
96.963
85.891
75.028
64.408
54.059
44.009
34.282
24.901
15.885
7.253
-0.98
-8.803
-16.205
-23.179
-29.72
-35.826
-41.498
-46.737
-51.548
-55.938
-59.917
-63.495
-66.685
-69.501
-71.958
-74.074
-75.866
-77.354
-78.557
-79.495
-80.19
-80.661
-80.93
-81.019
-80.946
-80.734
-80.401
-79.967
-79.45
-78.868
-78.24
-77.58
-76.906
-76.23
-75.569
-74.933
-74.336
-73.787
-73.297
-72.874
-72.526
-72.259
-72.079
-71.99
-71.996
-72.098
-72.299
-72.598
-72.995
-73.49
-74.079
-74.76
-75.529
-76.382
-77.316
-78.326
-79.406
-80.551
-81.756
-83.016
-84.324
-85.674
-87.061
-88.478
-89.919
-91.377
-92.848
-94.323
-95.798
-97.265
-98.719
-100.154
-101.565
-102.944
-104.288
-105.591
-106.848
-108.054
-109.207
-110.302
-111.337
-112.309
-113.217
-114.058
-114.833
-115.54
-116.179
-116.751
-117.255
-117.694
-118.068
-118.378
-118.628
-118.819
-118.954
-119.036
-119.069
-119.056
-119
-118.908
-118.782
-118.627
-118.449
-118.252
-118.043
-117.826
-117.608
-117.393
-117.188
-116.996
-116.824
-116.675
-116.553
-116.462
-116.405
-116.384
-116.402
-116.46
-116.559
-116.701
-116.884
-117.109
-117.373
-117.676
-118.014
-118.384
-118.783
-119.205
-119.646
-120.102
-120.565
-121.032
-121.493
-121.944
-122.375
-122.781
-123.153
-123.482
-123.76
-123.978
-124.13
-124.207
-124.204
-124.111
-123.924
-123.638
-123.247
-122.748
-122.139
-121.416
-120.577
-119.623
-118.556
-117.376
-116.087
-114.693
-113.203
-111.624
-109.969
-108.249
-106.475
-104.66
-102.819
-100.966
-99.115
-97.277
-95.465
-93.692
-91.973
-90.327
-88.771
-87.318
-85.985
-84.784
-83.728
-82.833
-82.105
-81.545
-81.157
-80.946
-80.925
-81.115
-81.534
-82.184
-83.07
-84.187
-85.525
-87.074
-88.807
-90.676
-92.641
-94.661
-96.706
-98.765
-100.812
-102.805
-104.697
-106.42
-107.925
-109.186
-110.17
-110.865
-111.282
-111.444
-111.406
-111.258
-111.072
-110.933
-110.922
-111.085
-111.499
-112.228
-113.37
-115.126
-117.58
-120.672
-124.266
-128.044
-131.621
-134.712
-136.886
-137.512
-136.286
-133.252
-128.77
-123.7
-119.113
-115.961
-115.073
-117.364
-122.453
-128.244
-133.523
-137.077
-138.514
-139.734
-137.594
-124.844
-94.838
-40.708
35.469
123.485
214.832
302.928
386.716
467.871
541.479
596.662
621.416
608.816
562.626
494.062
414.356
329.784
239.724
144.046
47.975
-40.159
-109.003
-153.655
-178.691
-189.972
-194.94
-197.173
-194.573
-187.149
-176.065
-163.539
-153.218
-146.504
-143.135
-142.595
-143.853
-145.874
-147.721
-148.249
-146.808
-143.491
-138.736
-133.13
-127.206
-121.378
-116.108
-111.938
-109.184
-107.882
-107.916
-109.029
-110.982
-113.621
-116.761
-120.189
-123.722
-127.164
-130.339
-133.155
-135.542
-137.441
-138.832
-139.682
-139.977
-139.751
-139.05
-137.925
-136.43
-134.603
-132.475
-130.096
-127.521
-124.812
-122.03
-119.211
-116.372
-113.522
-110.661
-107.783
-104.877
-101.914
-98.856
-95.674
-92.342
-88.838
-85.147
-81.246
-77.111
-72.722
-68.059
-63.107
-57.857
-52.299
-46.427
-40.24
-33.74
-26.933
-19.831
-12.442
-4.779
3.146
11.319
19.72
28.331
37.129
46.09
55.186
64.386
73.658
82.965
92.272
101.539
110.727
119.794
128.701
137.404
145.863
154.036
161.881
169.357
176.426
183.049
189.19
194.814
199.887
204.381
208.267
211.521
214.12
216.048
217.288
217.829
217.662
216.782
215.188
212.883
209.872
206.166
201.777
196.722
191.024
184.706
177.795
170.322
162.321
153.827
144.878
135.516
125.78
115.716
105.366
94.777
83.994
73.064
62.031
50.943
39.843
28.777
17.786
6.912
-3.805
-14.328
-24.622
-34.654
-44.393
-53.81
-62.881
-71.583
-79.896
-87.803
-95.29
-102.348
-108.967
-115.145
-120.879
-126.17
-131.024
-135.446
-139.445
-143.035
-146.228
-149.04
-151.49
-153.597
-155.381
-156.865
-158.072
-159.026
-159.751
-160.272
-160.614
-160.8
-160.855
-160.802
-160.663
-160.461
-160.214
-159.944
-159.667
-159.399
-159.155
-158.947
-158.788
-158.685
-158.645
-158.674
-158.775
-158.949
-159.195
-159.511
-159.892
-160.332
-160.824
-161.357
-161.921
-162.504
-163.092
-163.671
-164.224
-164.736
-165.19
-165.568
-165.854
-166.029
-166.075
-165.976
-165.715
-165.275
-164.64
-163.796
-162.728
-161.424
-159.872
-158.063
-155.986
-153.635
-151.003
-148.086
-144.88
-141.385
-137.6
-133.526
-129.167
-124.527
-119.612
-114.429
-108.988
-103.298
-97.37
-91.217
-84.851
-78.286
-71.538
-64.621
-57.552
-50.347
-43.022
-35.597
-28.087
-20.51
-12.883
-5.223
2.454
10.132
17.796
25.431
33.023
40.559
48.027
55.415
62.712
69.909
76.997
83.969
90.819
97.54
104.129
110.582
116.896
123.07
129.102
134.992
140.741
146.349
151.819
157.152
162.354
167.426
172.374
177.204
181.921
186.529
191.036
195.445
199.763
203.995
208.147
212.224
216.231
220.173
224.054
227.88
231.654
235.379
239.058
242.692
246.284
249.833
253.341
256.806
260.228
263.606
266.938
270.223
273.456
276.636
279.759
282.818
285.81
288.726
291.559
294.298
296.935
299.46
301.864
304.138
306.271
308.257
310.09
311.764
313.275
314.619
315.788
316.777
317.583
318.203
318.637
318.886
318.953
318.843
318.572
318.153
317.597
316.913
316.1
315.159
314.098
312.93
311.668
310.337
308.964
307.587
306.261
305.039
303.969
303.096
302.443
302.037
301.919
302.13
302.728
303.769
305.28
307.292
309.826
312.864
316.365
320.256
324.408
328.716
333.08
337.373
341.486
345.289
348.62
351.362
353.348
354.342
354.234
353.002
350.775
347.986
345.121
342.604
341.028
341.033
342.963
346.945
352.57
358.679
364.104
367.85
368.906
366.499
360.364
350.782
339.112
328.025
320.525
319.586
328.133
348.714
383.329
433.065
497.681
575.224
662.504
755.791
849.894
937.869
1012.516
1066.88
1097.391
1106.406
1097.851
1074.474
1033.55
963.013
848.695
681.194
462.314
211.084
-41.965
-265.08
-434.816
-544.026
-601.556
-622.888
-621.024
-602.922
-569.847
-524.196
-474.59
-431.611
-402.918
-388.955
-381.956
-373.788
-360.976
-345.385
-333.274
-328.708
-331.681
-339.905
-349.105
-356.334
-360.456
-360.635
-356.932
-349.838
-339.796
-327.558
-314.19
-300.623
-287.776
-276.661
-267.771
-261.131
-256.599
-253.778
-252.187
-251.512
-251.42
-251.505
-251.576
-251.519
-251.216
-250.689
-249.95
-248.932
-247.606
-245.914
-243.733
-241.018
-237.77
-233.993
-229.738
-225.032
-219.861
-214.246
-208.211
-201.784
-195.024
-187.959
-180.594
-172.977
-165.166
-157.241
-149.313
-141.439
-133.63
-125.892
-118.216
-110.595
-103.034
-95.518
-88.018
-80.513
-72.989
-65.44
-57.872
-50.275
-42.625
-34.895
-27.045
-19.056
-10.931
-2.672
5.709
14.193
22.759
31.375
39.995
48.582
57.1
65.517
73.803
81.924
89.838
97.505
104.885
111.938
118.626
124.914
130.768
136.155
141.049
145.424
149.263
152.546
155.255
157.377
158.896
159.805
160.094
159.761
158.802
157.221
155.022
152.214
148.812
144.83
140.288
135.208
129.615
123.537
117.002
110.044
102.695
94.99
86.966
78.66
70.11
61.355
52.435
43.388
34.253
25.068
15.87
6.695
-2.422
-11.448
-20.351
-29.101
-37.67
-46.031
-54.16
-62.034
-69.632
-76.936
-83.929
-90.599
-96.932
-102.922
-108.56
-113.842
-118.767
-123.335
-127.548
-131.41
-134.926
-138.104
-140.953
-143.482
-145.703
-147.629
-149.273
-150.648
-151.77
-152.654
-153.315
-153.768
-154.028
-154.112
-154.033
-153.807
-153.449
-152.972
-152.391
-151.719
-150.969
-150.154
-149.285
-148.375
-147.432
-146.468
-145.491
-144.509
-143.53
-142.56
-141.605
-140.67
-139.76
-138.88
-138.031
-137.217
-136.441
-135.703
-135.004
-134.347
-133.731
-133.156
-132.623
-132.132
-131.681
-131.272
-130.903
-130.574
-130.284
-130.033
-129.82
-129.644
-129.503
-129.397
-129.324
-129.284
-129.274
-129.293
-129.34
-129.413
-129.511
-129.632
-129.775
-129.936
-130.116
-130.312
-130.521
-130.744
-130.977
-131.219
-131.47
-131.726
-131.987
-132.25
-132.515
-132.78
-133.043
-133.303
-133.558
-133.806
-134.046
-134.277
-134.496
-134.704
-134.897
-135.077
-135.241
-135.389
-135.52
-135.634
-135.732
-135.814
-135.88
-135.93
-135.967
-135.992
-136.005
-136.01
-136.006
-135.997
-135.984
-135.969
-135.954
-135.941
-135.931
-135.926
-135.927
-135.936
-135.953
-135.98
-136.017
-136.065
-136.125
-136.196
-136.28
-136.376
-136.484
-136.603
-136.732
-136.869
-137.014
-137.163
-137.312
-137.459
-137.6
-137.73
-137.846
-137.941
-138.011
-138.049
-138.05
-138.008
-137.917
-137.77
-137.562
-137.286
-136.937
-136.51
-136.001
-135.405
-134.719
-133.939
-133.063
-132.09
-131.018
-129.846
-128.573
-127.201
-125.73
-124.163
-122.504
-120.758
-118.93
-117.03
-115.07
-113.059
-111.01
-108.935
-106.848
-104.762
-102.691
-100.646
-98.639
-96.681
-94.79
-92.981
-91.27
-89.67
-88.194
-86.854
-85.662
-84.629
-83.761
-83.057
-82.52
-82.159
-81.986
-82.024
-82.289
-82.786
-83.515
-84.476
-85.662
-87.063
-88.654
-90.39
-92.23
-94.138
-96.088
-98.067
-100.044
-101.973
-103.798
-105.451
-106.879
-108.057
-108.962
-109.568
-109.879
-109.91
-109.701
-109.353
-108.951
-108.569
-108.299
-108.209
-108.372
-108.921
-110.021
-111.791
-114.259
-117.298
-120.617
-123.903
-126.844
-129.063
-130.114
-129.628
-127.518
-124.165
-120.417
-117.292
-115.667
-116.257
-119.659
-126.098
-135.204
-145.688
-155.286
-161.211
-160.684
-151.216
-130.516
-96.904
-49.614
10.806
82.253
161.465
244.454
326.836
403.649
469.93
521.229
554.023
566.227
557.002
526.636
476.713
410.487
332.281
246.98
159.613
74.72
-3.409
-70.871
-124.837
-164.189
-189.106
-200.747
-200.919
-191.579
-175.305
-155.2
-134.259
-114.576
-97.506
-83.968
-74.459
-69.383
-68.615
-71.289
-76.133
-82.151
-88.543
-94.444
-99.268
-102.411
-103.45
-102.527
-100.108
-96.642
-92.684
-88.89
-85.633
-83.239
-81.949
-81.675
-82.246
-83.438
-84.859
-86.117
-86.987
-87.315
-87.033
-86.179
-84.754
-82.776
-80.329
-77.491
-74.323
-70.865
-67.123
-63.104
-58.846
-54.406
-49.855
-45.247
-40.607
-35.952
-31.288
-26.618
-21.943
-17.252
-12.517
-7.719
-2.842
2.125
7.183
12.346
17.631
23.057
28.646
34.414
40.374
46.537
52.912
59.503
66.314
73.342
80.582
88.028
95.677
103.524
111.56
119.777
128.163
136.703
145.381
154.179
163.074
172.042
181.056
190.087
199.106
208.081
216.98
225.768
234.412
242.875
251.123
259.119
266.828
274.214
281.241
287.876
294.086
299.838
305.102
309.849
314.053
317.69
320.738
323.176
324.989
326.161
326.682
326.544
325.741
324.273
322.139
319.347
315.903
311.82
307.113
301.8
295.903
289.447
282.456
274.963
266.996
258.591
249.783
240.607
231.104
221.311
211.269
201.02
190.603
180.061
169.435
158.765
148.092
137.455
126.893
116.443
106.142
96.024
86.121
76.466
67.085
58.007
49.256
40.853
32.818
25.168
17.917
11.076
4.656
-1.339
-6.903
-12.037
-16.74
-21.017
-24.872
-28.314
-31.351
-33.996
-36.26
-38.157
-39.704
-40.917
-41.814
-42.414
-42.735
-42.798
-42.624
-42.233
-41.647
-40.885
-39.97
-38.922
-37.762
-36.508
-35.181
-33.798
-32.378
-30.938
-29.493
-28.057
-26.644
-25.267
-23.935
-22.658
-21.445
-20.302
-19.236
-18.25
-17.348
-16.533
-15.806
-15.169
-14.62
-14.159
-13.784
-13.493
-13.284
-13.152
-13.094
-13.106
-13.183
-13.321
-13.515
-13.761
-14.052
-14.385
-14.754
-15.155
-15.581
-16.029
-16.494
-16.973
-17.461
-17.957
-18.457
-18.959
-19.464
-19.968
-20.473
-20.978
-21.484
-21.992
-22.502
-23.015
-23.534
-24.06
-24.594
-25.139
-25.697
-26.268
-26.855
-27.459
-28.081
-28.721
-29.38
-30.059
-30.758
-31.476
-32.214
-32.972
-33.748
-34.543
-35.355
-36.184
-37.028
-37.885
-38.753
-39.63
-40.512
-41.397
-42.281
-43.162
-44.035
-44.898
-45.745
-46.575
-47.382
-48.163
-48.914
-49.631
-50.311
-50.951
-51.548
-52.1
-52.605
-53.063
-53.471
-53.83
-54.138
-54.397
-54.605
-54.764
-54.872
-54.929
-54.937
-54.894
-54.801
-54.66
-54.47
-54.233
-53.948
-53.615
-53.237
-52.812
-52.342
-51.825
-51.264
-50.657
-50.006
-49.312
-48.576
-47.798
-46.979
-46.12
-45.222
-44.286
-43.312
-42.301
-41.252
-40.168
-39.049
-37.896
-36.712
-35.5
-34.264
-33.01
-31.745
-30.475
-29.209
-27.956
-26.723
-25.52
-24.356
-23.239
-22.176
-21.176
-20.246
-19.4
-18.649
-18.004
-17.476
-17.074
-16.807
-16.685
-16.716
-16.896
-17.228
-17.712
-18.357
-19.181
-20.198
-21.413
-22.83
-24.451
-26.265
-28.26
-30.413
-32.678
-35.011
-37.373
-39.732
-42.072
-44.371
-46.597
-48.703
-50.633
-52.336
-53.785
-54.954
-55.815
-56.373
-56.655
-56.728
-56.699
-56.658
-56.675
-56.827
-57.177
-57.795
-58.781
-60.214
-62.199
-64.91
-68.396
-72.594
-77.375
-82.361
-87.088
-91.142
-93.961
-94.879
-93.606
-90.232
-85.1
-79.19
-73.78
-69.768
-68.036
-69.663
-73.95
-79.382
-85.373
-89.327
-90.29
-87.921
-76.317
-51.18
-8.031
56.529
135.664
223.179
313.886
401.958
488.884
570.987
638.711
684.416
697.638
676.075
627.449
558.972
480.281
397.585
311.024
222.894
136.167
54.749
-15.296
-70.236
-109.371
-133.317
-143.898
-143.518
-134.483
-119.713
-102.965
-87.513
-75.129
-66.508
-61.726
-60.305
-61.844
-65.67
-70.067
-73.356
-74.8
-74.269
-72.076
-68.81
-64.693
-59.857
-55.095
-51.217
-48.608
-47.47
-47.666
-48.868
-50.999
-54.052
-57.74
-61.774
-65.921
-69.892
-73.548
-76.848
-79.683
-81.978
-83.719
-84.875
-85.449
-85.497
-85.053
-84.153
-82.844
-81.149
-79.099
-76.745
-74.136
-71.333
-68.397
-65.363
-62.249
-59.068
-55.82
-52.506
-49.115
-45.62
-41.986
-38.187
-34.2
-30.01
-25.605
-20.963
-16.065
-10.893
-5.43
0.332
6.4
12.781
19.477
26.486
33.802
41.413
49.306
57.467
65.88
74.529
83.395
92.458
101.693
111.076
120.579
130.173
139.825
149.501
159.162
168.773
178.295
187.686
196.908
205.92
214.68
223.149
231.288
239.056
246.417
253.332
259.767
265.69
271.068
275.873
280.079
283.663
286.604
288.886
290.494
291.418
291.65
291.186
290.027
288.175
285.637
282.424
278.547
274.025
268.878
263.129
256.805
249.936
242.554
234.693
226.39
217.683
208.613
199.221
189.548
179.639
169.536
159.282
148.923
138.5
128.056
117.632
107.268
97.003
86.875
76.918
67.166
57.649
48.396
39.435
30.789
22.479
14.525
6.944
-0.252
-7.051
-13.445
-19.427
-24.995
-30.148
-34.888
-39.219
-43.148
-46.684
-49.837
-52.619
-55.045
-57.131
-58.893
-60.349
-61.519
-62.422
-63.078
-63.509
-63.734
-63.775
-63.652
-63.387
-62.998
-62.506
-61.929
-61.285
-60.592
-59.867
-59.125
-58.381
-57.649
-56.941
-56.271
-55.647
-55.08
-54.577
-54.147
-53.794
-53.523
-53.338
-53.241
-53.234
-53.316
-53.488
-53.748
-54.093
-54.52
-55.026
-55.607
-56.257
-56.972
-57.745
-58.572
-59.447
-60.363
-61.315
-62.297
-63.303
-64.327
-65.363
-66.406
-67.449
-68.488
-69.516
-70.529
-71.521
-72.488
-73.426
-74.329
-75.195
-76.021
-76.802
-77.538
-78.226
-78.863
-79.449
-79.982
-80.463
-80.891
-81.266
-81.589
-81.861
-82.082
-82.256
-82.382
-82.463
-82.501
-82.498
-82.456
-82.378
-82.267
-82.126
-81.958
-81.766
-81.553
-81.325
-81.084
-80.835
-80.582
-80.328
-80.078
-79.836
-79.605
-79.39
-79.194
-79.02
-78.872
-78.753
-78.666
-78.613
-78.597
-78.619
-78.682
-78.785
-78.931
-79.12
-79.351
-79.624
-79.939
-80.294
-80.688
-81.117
-81.579
-82.07
-82.586
-83.123
-83.675
-84.238
-84.805
-85.369
-85.924
-86.464
-86.981
-87.469
-87.919
-88.324
-88.678
-88.974
-89.204
-89.362
-89.441
-89.436
-89.342
-89.153
-88.866
-88.476
-87.981
-87.378
-86.667
-85.848
-84.92
-83.888
-82.756
-81.531
-80.22
-78.834
-77.38
-75.869
-74.314
-72.726
-71.115
-69.492
-67.868
-66.256
-64.672
-63.132
-61.651
-60.243
-58.923
-57.705
-56.608
-55.641
-54.81
-54.122
-53.585
-53.213
-53.031
-53.056
-53.296
-53.756
-54.439
-55.339
-56.449
-57.746
-59.188
-60.735
-62.348
-64.001
-65.684
-67.373
-69.031
-70.61
-72.051
-73.312
-74.382
-75.241
-75.865
-76.27
-76.49
-76.603
-76.733
-76.957
-77.331
-77.928
-78.797
-80.002
-81.619
-83.696
-86.316
-89.62
-93.644
-98.307
-103.469
-108.803
-113.97
-118.664
-122.379
-124.485
-124.638
-122.895
-119.586
-115.355
-110.895
-106.807
-103.966
-103.522
-105.157
-106.58
-105.533
-100.627
-93.625
-88.641
-86.258
-80.639
-60.929
-17.399
53.321
144.568
243.986
343.275
436.121
519.15
588.857
634.454
646.767
621.007
558.952
472.072
373.898
277.123
190.045
116.024
55.184
4.35
-38.059
-73.548
-102.472
-122.013
-131.336
-130.63
-121.428
-108.286
-95.214
-84.521
-77.242
-73.12
-71.674
-72.969
-77.026
-82.985
-89.22
-94.203
-97.151
-97.958
-96.958
-94.331
-89.926
-83.986
-77.305
-70.807
-65.157
-60.629
-57.171
-54.737
-53.47
-53.404
-54.341
-55.942
-57.864
-59.883
-61.872
-63.719
-65.29
-66.467
-67.188
-67.452
-67.279
-66.679
-65.668
-64.26
-62.47
-60.327
-57.86
-55.094
-52.07
-48.834
-45.437
-41.935
-38.365
-34.747
-31.095
-27.414
-23.7
-19.942
-16.117
-12.194
-8.151
-3.97
0.365
4.871
9.567
14.471
19.6
24.966
30.579
36.447
42.573
48.96
55.604
62.498
69.633
76.994
84.568
92.341
100.296
108.417
116.684
125.074
133.566
142.133
150.75
159.385
168.008
176.584
185.081
193.461
201.69
209.731
217.547
225.102
232.36
239.286
245.845
252.004
257.732
262.998
267.775
272.038
275.763
278.93
281.522
283.523
284.921
285.708
285.877
285.425
284.352
282.66
280.355
277.447
273.945
269.866
265.226
260.046
254.35
248.161
241.509
234.423
226.935
219.077
210.883
202.39
193.634
184.65
175.476
166.148
156.704
147.18
137.61
128.03
118.471
108.967
99.546
90.238
81.07
72.065
63.249
54.641
46.262
38.128
30.255
22.656
15.342
8.322
1.604
-4.809
-10.913
-16.708
-22.193
-27.371
-32.245
-36.822
-41.108
-45.11
-48.837
-52.299
-55.506
-58.469
-61.199
-63.708
-66.008
-68.109
-70.024
-71.764
-73.34
-74.762
-76.04
-77.184
-78.204
-79.106
-79.9
-80.593
-81.191
-81.7
-82.126
-82.473
-82.745
-82.945
-83.077
-83.141
-83.14
-83.075
-82.946
-82.754
-82.499
-82.18
-81.797
-81.348
-80.834
-80.254
-79.607
-78.892
-78.109
-77.259
-76.341
-75.357
-74.307
-73.193
-72.017
-70.781
-69.488
-68.141
-66.744
-65.301
-63.815
-62.293
-60.739
-59.159
-57.558
-55.944
-54.322
-52.7
-51.084
-49.481
-47.9
-46.347
-44.83
-43.356
-41.933
-40.566
-39.265
-38.034
-36.88
-35.81
-34.827
-33.938
-33.146
-32.456
-31.869
-31.39
-31.018
-30.756
-30.603
-30.559
-30.622
-30.792
-31.065
-31.439
-31.909
-32.472
-33.121
-33.852
-34.658
-35.533
-36.467
-37.454
-38.486
-39.552
-40.645
-41.755
-42.872
-43.987
-45.09
-46.17
-47.218
-48.223
-49.176
-50.068
-50.888
-51.629
-52.281
-52.836
-53.287
-53.627
-53.849
-53.946
-53.914
-53.747
-53.44
-52.989
-52.39
-51.639
-50.733
-49.671
-48.45
-47.071
-45.531
-43.832
-41.974
-39.958
-37.785
-35.458
-32.978
-30.35
-27.576
-24.661
-21.609
-18.426
-15.118
-11.691
-8.152
-4.507
-0.765
3.068
6.982
10.97
15.022
19.128
23.277
27.457
31.657
35.864
40.062
44.236
48.37
52.446
56.446
60.352
64.145
67.807
71.32
74.665
77.826
80.786
83.527
86.03
88.277
90.249
91.93
93.303
94.355
95.071
95.439
95.455
95.113
94.407
93.327
91.855
89.977
87.687
84.984
81.869
78.352
74.446
70.178
65.59
60.724
55.618
50.305
44.804
39.138
33.346
27.475
21.586
15.735
9.952
4.268
-1.285
-6.703
-12.001
-17.231
-22.491
-27.853
-33.368
-39.088
-45.053
-51.329
-58.008
-65.162
-72.888
-81.309
-90.473
-100.362
-110.854
-121.608
-132.179
-142.109
-150.853
-157.866
-162.821
-165.644
-166.662
-166.707
-166.823
-168.008
-171.163
-177.061
-186.049
-197.789
-211.024
-223.508
-232.327
-234.579
-227.682
-209.056
-176.601
-129.359
-67.816
4.965
83.563
162.755
238.269
307.896
370.931
424.416
462.223
475.51
456.993
404.281
321.727
219.975
108.396
-3.509
-107.543
-200.178
-275.464
-331.668
-372.991
-402.028
-424.244
-442.58
-453.973
-457.191
-451.703
-438.28
-420.895
-402.356
-383.594
-365.387
-348.315
-333.337
-322.011
-315.283
-312.851
-314.002
-318.266
-324.794
-333.481
-344.863
-356.984
-367.41
-373.06
-368.916
-356.057
-339.898
-326.1
-322.833
-330.72
-343.231
-355.179
-360.472
-358.181
-353.267
-348.523
-345.858
-345.551
-345.351
-344.346
-342.672
-340.378
-337.854
-335.232
-332.297
-329.001
-325.433
-321.617
-317.564
-313.332
-308.967
-304.513
-300.037
-295.552
-291.026
-286.442
-281.774
-276.987
-272.055
-266.952
-261.652
-256.139
-250.395
-244.401
-238.141
-231.595
-224.742
-217.559
-210.02
-202.107
-193.818
-185.158
-176.135
-166.764
-157.068
-147.08
-136.855
-126.441
-115.878
-105.186
-94.372
-83.448
-72.433
-61.348
-50.216
-39.037
-27.805
-16.526
-5.216
6.114
17.467
28.878
40.418
52.137
64.044
76.11
88.279
100.494
112.691
124.786
136.67
148.195
159.222
169.647
179.391
188.375
196.5
203.625
209.579
214.232
217.507
219.369
219.819
218.859
216.527
212.899
208.109
202.335
195.735
188.427
180.502
172.056
163.206
154.103
144.918
135.785
126.805
118.061
109.622
101.557
93.91
86.681
79.828
73.278
66.987
60.943
55.154
49.626
44.358
39.331
34.528
29.955
25.624
21.54
17.712
14.136
10.826
7.812
5.144
2.875
1.042
-0.339
-1.262
-1.726
-1.73
-1.28
-0.388
0.919
2.617
4.686
7.106
9.86
12.927
16.276
19.874
23.688
27.687
31.843
36.13
40.522
44.994
49.524
54.094
58.691
63.296
67.894
72.468
77
81.475
85.882
90.206
94.437
98.565
102.582
106.484
110.269
113.934
117.478
120.903
124.211
127.405
130.489
133.468
136.348
139.135
141.835
144.457
147.007
149.493
151.922
154.304
156.645
158.953
161.235
163.496
165.745
167.985
170.224
172.464
174.712
176.972
179.245
181.536
183.847
186.179
188.531
190.904
193.296
195.704
198.125
200.556
202.991
205.426
207.855
210.275
212.679
215.061
217.418
219.742
222.03
224.274
226.469
228.611
230.693
232.711
234.66
236.536
238.333
240.051
241.684
243.231
244.69
246.059
247.336
248.52
249.612
250.611
251.519
252.337
253.067
253.714
254.28
254.77
255.188
255.539
255.829
256.061
256.24
256.37
256.456
256.502
256.513
256.496
256.456
256.398
256.331
256.262
256.2
256.152
256.127
256.132
256.173
256.259
256.396
256.589
256.843
257.162
257.554
258.024
258.582
259.234
259.985
260.839
261.803
262.883
264.084
265.41
266.862
268.444
270.164
272.036
274.081
276.311
278.726
281.321
284.084
287.001
290.052
293.203
296.4
299.597
302.749
305.82
308.792
311.632
314.299
316.749
318.92
320.77
322.279
323.431
324.227
324.686
324.832
324.728
324.475
324.177
323.948
323.866
323.959
324.257
324.756
325.474
326.508
327.814
329.235
330.635
331.799
332.62
333.197
333.396
332.838
331.389
329.044
325.86
322.146
317.749
311.954
304.385
294.905
283.194
268.954
251.722
230.759
206.111
178.634
148.992
117.748
85.51
52.723
20.043
-11.602
-41.886
-71.083
-99.341
-126.746
-153.299
-178.775
-203.084
-226.371
-248.563
-269.415
-288.849
-306.776
-323.104
-337.785
-350.588
-361.17
-369.269
-374.571
-376.625
-375.172
-370.269
-362.484
-352.814
-342.185
-331.599
-322.176
-314.819
-310.318
-307.882
-304.41
-297.904
-287.126
-271.882
-254.658
-232.58
-198.398
-146.098
-69.054
30.796
142.411
255.598
359.565
447.323
518.051
570.035
601.384
611.222
599.016
564.747
509.564
435.279
342.727
237.994
131.625
33.796
-44.067
-98.144
-133.143
-154.142
-167.99
-177.715
-180.921
-177.473
-168.241
-155.476
-143.687
-135.051
-129.711
-127.421
-127.14
-127.871
-128.978
-129.498
-128.344
-125.146
-120.124
-113.731
-106.653
-99.494
-92.675
-86.697
-82.087
-79.08
-77.69
-77.804
-79.147
-81.486
-84.647
-88.41
-92.57
-96.946
-101.341
-105.579
-109.52
-113.045
-116.073
-118.561
-120.472
-121.8
-122.58
-122.853
-122.678
-122.104
-121.164
-119.892
-118.327
-116.508
-114.476
-112.287
-109.998
-107.668
-105.357
-103.099
-100.906
-98.767
-96.637
-94.485
-92.294
-90.055
-87.776
-85.468
-83.13
-80.783
-78.468
-76.194
-73.944
-71.663
-69.246
-66.627
-63.782
-60.705
-57.43
-53.967
-50.297
-46.41
-42.292
-37.916
-33.257
-28.252
-22.803
-16.855
-10.389
-3.434
3.92
11.625
19.67
28.058
36.823
45.974
55.487
65.346
75.533
85.995
96.654
107.39
118.032
128.432
138.456
147.986
156.932
165.184
172.613
179.084
184.45
188.58
191.374
192.741
192.601
190.918
187.692
182.963
176.816
169.352
160.686
150.954
140.307
128.894
116.863
104.363
91.551
78.571
65.555
52.618
39.857
27.351
15.159
3.322
-8.141
-19.23
-29.965
-40.387
-50.563
-60.539
-70.35
-80.028
-89.601
-99.088
-108.505
-117.851
-127.109
-136.262
-145.295
-154.188
-162.923
-171.471
-179.792
-187.843
-195.571
-202.937
-209.912
-216.474
-222.605
-228.295
-233.537
-238.336
-242.705
-246.655
-250.195
-253.33
-256.067
-258.414
-260.382
-261.982
-263.226
-264.124
-264.683
-264.91
-264.812
-264.392
-263.654
-262.599
-261.224
-259.53
-257.518
-255.191
-252.552
-249.604
-246.352
-242.799
-238.954
-234.823
-230.412
-225.728
-220.775
-215.562
-210.097
-204.388
-198.445
-192.277
-185.897
-179.316
-172.549
-165.609
-158.513
-151.277
-143.916
-136.449
-128.896
-121.275
-113.606
-105.911
-98.21
-90.525
-82.879
-75.296
-67.798
-60.406
-53.142
-46.026
-39.079
-32.317
-25.753
-19.401
-13.272
-7.378
-1.728
3.667
8.8
13.663
18.248
22.548
26.561
30.283
33.716
36.861
39.719
42.293
44.587
46.606
48.359
49.854
51.095
52.093
52.867
53.441
53.844
54.103
54.234
54.255
54.187
54.04
53.824
53.532
53.136
52.614
51.943
51.102
50.078
48.841
47.344
45.533
43.37
40.842
37.955
34.708
31.079
27.059
22.673
18.012
13.196
8.32
3.471
-1.289
-5.836
-9.927
-13.401
-16.224
-18.455
-20.317
-22.033
-23.683
-25.477
-27.854
-30.965
-34.713
-38.849
-42.719
-45.628
-47.007
-46.13
-42.198
-36.354
-31.605
-30.3
-33.997
-40.424
-43.902
-42.668
-41.31
-50.882
-86.227
-157.143
-260.543
-381.336
-498.402
-590.178
-645.473
-665.695
-657.978
-634.099
-603.717
-572.48
-546.218
-528.154
-520.657
-522.58
-528.079
-532.629
-531.705
-524.65
-515.329
-505.494
-496.664
-489.212
-481.155
-472.077
-462.494
-452.771
-443.927
-436.701
-431.101
-427.14
-424.806
-423.883
-424.214
-425.657
-427.934
-430.75
-433.909
-437.239
-440.615
-443.973
-447.211
-450.204
-452.843
-455.028
-456.713
-457.909
-458.647
-458.989
-459.032
-458.892
-458.72
-458.703
-459.026
-459.79
-460.974
-462.399
-463.736
-464.625
-464.729
-463.653
-460.883
-456.033
-448.99
-440.017
-429.8
-419.06
-408.311
-398.084
-389.007
-381.428
-375.127
-368.96
-360.965
-349.026
-331.028
-304.728
-267.755
-217.974
-155.189
-81.739
-0.52
85.886
177.264
274.669
374.898
469.253
543.979
585.552
587.583
553.825
496.201
425.978
351.197
273.477
189.854
103.863
20.963
-51.143
-103.366
-137.061
-156.069
-164.521
-168.651
-168.588
-164.294
-157.988
-150.702
-144.834
-141.99
-141.683
-143.289
-145.899
-148.377
-149.744
-149.013
-145.574
-139.393
-130.836
-120.544
-109.181
-97.398
-85.895
-75.343
-66.176
-58.563
-52.493
-47.826
-44.428
-42.191
-40.964
-40.594
-40.972
-42.034
-43.737
-46.027
-48.758
-51.732
-54.742
-57.59
-60.135
-62.293
-64.001
-65.232
-65.973
-66.235
-66.042
-65.413
-64.342
-62.804
-60.749
-58.149
-55.032
-51.456
-47.504
-43.275
-38.831
-34.213
-29.46
-24.584
-19.585
-14.455
-9.164
-3.685
1.988
7.847
13.862
20.008
26.286
32.707
39.294
46.085
53.1
60.357
67.877
75.665
83.717
92.023
100.555
109.28
118.175
127.217
136.388
145.671
155.04
164.466
173.918
183.36
192.754
202.062
211.239
220.246
229.041
237.589
245.855
253.808
261.414
268.642
275.46
281.838
287.743
293.15
298.029
302.355
306.104
309.256
311.794
313.706
314.98
315.609
315.591
314.923
313.608
311.654
309.068
305.862
302.052
297.655
292.691
287.185
281.163
274.652
267.685
260.294
252.515
244.382
235.934
227.209
218.246
209.085
199.765
190.326
180.809
171.254
161.699
152.184
142.747
133.424
124.25
115.258
106.479
97.942
89.673
81.696
74.034
66.706
59.729
53.118
46.886
41.042
35.595
30.548
25.905
21.666
17.829
14.39
11.344
8.681
6.394
4.47
2.897
1.66
0.745
0.134
-0.19
-0.246
-0.053
0.369
1.001
1.821
2.81
3.948
5.214
6.59
8.058
9.598
11.195
12.831
14.491
16.16
17.825
19.474
21.094
22.677
24.212
25.692
27.11
28.46
29.739
30.942
32.066
33.112
34.077
34.964
35.773
36.507
37.169
37.765
38.298
38.774
39.2
39.581
39.925
40.238
40.528
40.802
41.067
41.33
41.598
41.879
42.18
42.506
42.864
43.259
43.697
44.182
44.718
45.309
45.957
46.665
47.436
48.269
49.166
50.128
51.153
52.241
53.389
54.595
55.856
57.169
58.53
59.934
61.376
62.853
64.358
65.887
67.435
68.995
70.564
72.136
73.705
75.267
76.816
78.349
79.86
81.346
82.805
84.234
85.631
86.994
88.324
89.62
90.883
92.115
93.316
94.491
95.641
96.771
97.886
98.991
100.091
101.193
102.303
103.428
104.576
105.752
106.965
108.22
109.525
110.886
112.31
113.802
115.368
117.012
118.741
120.557
122.464
124.463
126.556
128.742
131.021
133.389
135.841
138.369
140.967
143.625
146.333
149.081
151.856
154.647
157.443
160.232
163.004
165.744
168.439
171.071
173.627
176.091
178.449
180.689
182.796
184.758
186.573
188.236
189.738
191.071
192.214
193.149
193.868
194.365
194.637
194.69
194.532
194.185
193.687
193.079
192.398
191.675
190.932
190.19
189.486
188.867
188.387
188.099
188.033
188.215
188.674
189.402
190.374
191.525
192.755
193.985
195.143
196.141
196.907
197.366
197.427
197.035
196.091
194.413
191.945
188.739
184.917
180.818
176.801
173.14
170.331
169.021
169.512
171.784
175.555
180.052
184.435
188.1
190.166
189.391
186.293
183.062
181.399
184.015
190.584
197.04
204.321
214.875
234.384
274.619
339.291
428.722
541.289
663.296
782.392
884.043
948.509
970.648
951.963
899.166
830.57
755.223
675.564
596.49
515.75
435.744
364.345
302.068
250.64
210.394
177.498
153.021
137.585
130.032
130.072
134.998
142.187
150.458
158.7
166.509
173.639
179.766
185.079
189.841
194.173
198.262
202.025
205.473
209.018
212.765
216.521
220.214
223.725
227.017
230.357
233.689
236.542
238.735
240.251
241.097
241.472
241.453
240.923
240.043
239.193
238.619
238.522
238.992
239.95
241.39
243.364
245.838
248.739
251.99
255.499
259.226
263.18
267.353
271.734
276.292
280.972
285.74
290.575
295.469
300.429
305.474
310.633
315.945
321.444
327.155
333.086
339.222
345.53
351.942
358.365
364.722
370.958
377.052
383.013
388.85
394.581
400.218
405.759
411.206
416.55
421.777
426.884
431.889
436.835
441.822
446.996
452.486
458.399
464.772
471.602
478.859
486.5
494.467
502.695
511.157
519.891
528.979
538.501
548.506
558.945
569.702
580.757
592.023
603.366
614.707
625.904
636.963
648.14
659.599
671.042
682.018
692.027
700.411
706.683
710.078
709.495
704.993
698.383
691.829
686.537
680.643
669.289
648.071
616.751
581.674
553.018
542.798
557.88
591.756
627.442
635.139
581.787
450.722
244.119
-12.288
-275.845
-510.467
-694.791
-822.264
-900.28
-937.331
-935.014
-898.753
-838.874
-770.389
-716.613
-690.776
-691.266
-707.189
-718.811
-714.592
-695.022
-666.921
-641.833
-625.381
-616.984
-614.333
-612.906
-610.391
-606.778
-601.203
-594.342
-588.482
-583.206
-577.184
-568.626
-551.98
-527.409
-502.11
-481.93
-476.387
-488.411
-507.818
-527.004
-537.043
-532.567
-521.779
-510.506
-502.764
-502.459
-504.996
-506.829
-507.347
-504.939
-500.845
-496.358
-491.077
-485.139
-478.584
-471.261
-463.403
-455.26
-446.925
-438.514
-430.19
-422.068
-414.226
-406.794
-399.859
-393.451
-387.617
-382.364
-377.669
-373.519
-369.893
-366.742
-364.031
-361.721
-359.775
-358.17
-356.874
-355.848
-355.047
-354.413
-353.9
-353.483
-353.14
-352.858
-352.631
-352.449
-352.316
-352.242
-352.234
-352.296
-352.425
-352.613
-352.857
-353.157
-353.513
-353.927
-354.399
-354.927
-355.509
-356.143
-356.827
-357.554
-358.319
-359.111
-359.923
-360.749
-361.581
-362.417
-363.25
-364.073
-364.882
-365.672
-366.436
-367.168
-367.861
-368.507
-369.099
-369.628
-370.089
-370.474
-370.776
-370.989
-371.107
-371.126
-371.039
-370.843
-370.531
-370.102
-369.549
-368.87
-368.063
-367.124
-366.052
-364.846
-363.506
-362.03
-360.42
-358.677
-356.801
-354.794
-352.656
-350.392
-348.002
-345.49
-342.86
-340.114
-337.258
-334.297
-331.234
-328.077
-324.83
-321.5
-318.091
-314.612
-311.067
-307.465
-303.813
-300.118
-296.389
-292.638
-288.876
-285.113
-281.362
-277.635
-273.945
-270.303
-266.721
-263.209
-259.777
-256.432
-253.186
-250.049
-247.036
-244.156
-241.419
-238.836
-236.415
-234.164
-232.091
-230.193
-228.47
-226.923
-225.558
-224.39
-223.433
-222.694
-222.175
-221.879
-221.796
-221.918
-222.223
-222.671
-223.223
-223.843
-224.499
-225.174
-225.848
-226.485
-227.042
-227.464
-227.694
-227.699
-227.45
-226.913
-226.095
-225.022
-223.75
-222.374
-220.965
-219.589
-218.319
-217.218
-216.345
-215.771
-215.562
-215.833
-216.788
-218.507
-220.949
-223.989
-227.282
-230.461
-233.202
-234.957
-235.05
-233.205
-229.467
-224.155
-218.29
-212.947
-208.993
-207.82
-209.867
-213.5
-216.714
-217.381
-216.003
-217.121
-222.816
-230.456
-229.221
-202.624
-142.379
-49.105
65.162
181.907
292.192
390.952
476.209
546.413
590.525
598.641
566.041
494.898
397.534
288.434
181.174
84.705
3.058
-63.036
-116.765
-160.02
-194.591
-221.165
-237.348
-242.842
-238.606
-226.776
-211.871
-197.487
-185.617
-177.375
-172.508
-170.391
-170.737
-173.202
-177.234
-181.953
-186.369
-189.671
-191.654
-192.556
-192.59
-191.788
-190.055
-187.546
-184.74
-182.28
-180.564
-179.633
-179.402
-179.821
-180.979
-182.881
-185.325
-187.912
-190.246
-192.119
-193.459
-194.256
-194.481
-194.074
-193.016
-191.359
-189.193
-186.588
-183.584
-180.189
-176.405
-172.271
-167.85
-163.215
-158.445
-153.59
-148.678
-143.732
-138.764
-133.779
-128.776
-123.739
-118.637
-113.449
-108.159
-102.759
-97.244
-91.605
-85.826
-79.889
-73.774
-67.461
-60.929
-54.159
-47.147
-39.896
-32.418
-24.742
-16.893
-8.898
-0.792
7.4
15.666
24
32.421
40.946
49.576
58.299
67.081
75.885
84.701
93.522
102.342
111.179
120.04
128.942
137.931
147.026
156.203
165.411
174.545
183.479
192.122
200.401
208.261
215.662
222.537
228.817
234.449
239.358
243.468
246.693
248.902
249.998
249.952
248.773
246.541
243.376
239.362
234.567
229.065
222.905
216.153
208.879
201.125
192.95
184.43
175.656
166.765
157.878
149.06
140.35
131.741
123.19
114.687
106.228
97.802
89.419
81.093
72.838
64.695
56.707
48.897
41.276
33.831
26.549
19.44
12.529
5.852
-0.542
-6.615
-12.337
-17.67
-22.591
-27.087
-31.151
-34.793
-38.031
-40.878
-43.341
-45.428
-47.143
-48.498
-49.51
-50.197
-50.581
-50.685
-50.533
-50.152
-49.567
-48.804
-47.883
-46.823
-45.641
-44.353
-42.979
-41.535
-40.04
-38.511
-36.965
-35.421
-33.894
-32.4
-30.952
-29.562
-28.239
-26.993
-25.83
-24.757
-23.777
-22.894
-22.109
-21.424
-20.838
-20.349
-19.957
-19.657
-19.446
-19.32
-19.273
-19.299
-19.392
-19.546
-19.754
-20.01
-20.307
-20.638
-20.996
-21.375
-21.769
-22.169
-22.571
-22.966
-23.348
-23.712
-24.052
-24.362
-24.639
-24.878
-25.076
-25.231
-25.341
-25.405
-25.422
-25.393
-25.318
-25.197
-25.034
-24.829
-24.585
-24.306
-23.994
-23.653
-23.288
-22.9
-22.495
-22.077
-21.649
-21.215
-20.78
-20.346
-19.917
-19.497
-19.089
-18.697
-18.323
-17.97
-17.64
-17.334
-17.056
-16.804
-16.581
-16.384
-16.215
-16.071
-15.951
-15.852
-15.77
-15.7
-15.639
-15.582
-15.523
-15.456
-15.375
-15.274
-15.146
-14.984
-14.783
-14.535
-14.234
-13.872
-13.443
-12.943
-12.366
-11.706
-10.958
-10.12
-9.187
-8.159
-7.033
-5.808
-4.483
-3.059
-1.538
0.077
1.782
3.572
5.438
7.37
9.357
11.384
13.439
15.505
17.57
19.615
21.626
23.59
25.492
27.319
29.054
30.679
32.177
33.534
34.736
35.769
36.619
37.273
37.721
37.964
37.996
37.81
37.393
36.722
35.784
34.575
33.098
31.352
29.344
27.084
24.598
21.933
19.139
16.258
13.324
10.359
7.401
4.508
1.748
-0.804
-3.1
-5.118
-6.84
-8.231
-9.287
-10.017
-10.469
-10.751
-10.957
-11.164
-11.464
-11.932
-12.639
-13.723
-15.361
-17.656
-20.652
-24.231
-28.082
-31.986
-35.777
-39.135
-41.637
-42.877
-42.526
-40.747
-38.342
-35.896
-33.711
-32.37
-32.476
-34.437
-38.834
-44.536
-48.022
-47.581
-42.594
-33.028
-21.431
-5.364
22.635
67.816
134.371
220.197
315.354
412.396
507.528
598.731
685.06
761.39
816.304
837.06
817.066
754.652
654.745
531.44
397.906
269.923
165.708
92.183
50.339
33.482
25.652
18.164
8.651
-1.295
-4.878
-0.415
8.897
19.316
26.7
29.679
29.317
26.759
23.11
19.4
16.589
15.683
17.218
21.081
26.734
33.466
40.692
47.915
54.61
60.284
64.639
67.615
69.325
69.987
69.801
68.932
67.543
65.807
63.88
61.913
60.069
58.501
57.321
56.612
56.423
56.778
57.696
59.177
61.182
63.655
66.541
69.789
73.363
77.232
81.344
85.641
90.058
94.528
99.009
103.474
107.9
112.279
116.611
120.906
125.189
129.497
133.858
138.294
142.828
147.476
152.261
157.203
162.314
167.61
173.109
178.825
184.782
190.993
197.456
204.169
211.126
218.305
225.682
233.218
240.853
248.543
256.26
263.983
271.71
279.436
287.146
294.833
302.488
310.103
317.678
325.2
332.644
340.01
347.311
354.591
361.933
369.376
376.915
384.529
392.161
399.742
407.2
414.426
421.285
427.66
433.441
438.543
442.915
446.473
449.109
450.692
451.054
450.076
447.703
443.895
438.651
432.009
424.025
414.816
404.558
393.396
381.455
368.836
355.605
341.86
327.727
313.339
298.856
284.411
270.097
256.007
242.219
228.775
215.699
202.966
190.503
178.266
166.245
154.439
142.879
131.582
120.549
109.786
99.301
89.101
79.202
69.614
60.341
51.406
42.841
34.697
27.047
19.941
13.41
7.477
2.152
-2.562
-6.658
-10.144
-13.038
-15.355
-17.109
-18.315
-18.982
-19.129
-18.781
-17.969
-16.728
-15.091
-13.09
-10.757
-8.125
-5.223
-2.084
1.267
4.806
8.505
12.337
16.274
20.286
24.345
28.424
32.497
36.536
40.518
44.419
48.221
51.905
55.453
58.85
62.083
65.139
68.008
70.679
73.146
75.402
77.442
79.264
80.866
82.248
83.413
84.362
85.101
85.635
85.97
86.114
86.074
85.859
85.477
84.939
84.254
83.432
82.485
81.424
80.258
79
77.66
76.248
74.774
73.249
71.679
70.076
68.446
66.797
65.138
63.477
61.819
60.171
58.54
56.931
55.349
53.798
52.282
50.804
49.366
47.972
46.624
45.323
44.07
42.868
41.718
40.622
39.581
38.598
37.673
36.808
36.005
35.267
34.596
33.994
33.465
33.01
32.634
32.338
32.127
32.003
31.967
32.023
32.172
32.415
32.756
33.194
33.73
34.364
35.097
35.928
36.857
37.881
38.999
40.208
41.503
42.881
44.335
45.857
47.438
49.068
50.736
52.433
54.145
55.861
57.568
59.256
60.913
62.53
64.094
65.587
66.997
68.311
69.518
70.606
71.564
72.38
73.045
73.562
73.927
74.136
74.179
74.036
73.694
73.153
72.413
71.48
70.363
69.072
67.632
66.088
64.479
62.844
61.208
59.584
57.998
56.493
55.123
53.953
53.025
52.36
51.978
51.901
52.128
52.64
53.378
54.253
55.192
56.132
57.018
57.787
58.35
58.621
58.482
57.788
56.477
54.577
52.214
49.673
47.299
45.406
44.398
44.752
46.75
50.456
55.545
61.238
66.677
71.152
74.092
75.031
73.774
70.568
66.449
63.358
63.759
70.027
84.049
107.633
142.403
189.319
248.454
317.52
391.873
467.198
540.341
610.492
678.343
741.216
791.952
820.402
818.096
782.866
720.046
638.701
544.747
443.212
338.705
238.517
156.939
103.432
79.809
80.077
89.34
97.48
101.186
101.143
102.121
105.593
110.055
114.136
116.262
116.308
115.134
113.572
112.779
113.608
116.116
119.782
123.5
126.563
129.048
130.898
131.846
131.607
129.901
126.824
122.877
118.089
111.959
104.147
94.446
82.823
69.475
54.452
37.629
19.096
-0.823
-21.829
-43.641
-66.067
-89.013
-112.31
-135.675
-158.8
-181.462
-203.494
-224.776
-245.224
-264.735
-283.227
-300.677
-317.085
-332.454
-346.79
-360.082
-372.303
-383.467
-393.61
-402.798
-411.15
-418.754
-425.662
-431.919
-437.538
-442.527
-446.897
-450.631
-453.689
-456.04
-457.661
-458.542
-458.693
-458.108
-456.774
-454.672
-451.771
-448.057
-443.538
-438.225
-432.141
-425.317
-417.788
-409.604
-400.832
-391.535
-381.77
-371.594
-361.06
-350.224
-339.149
-327.896
-316.528
-305.105
-293.682
-282.318
-271.069
-259.988
-249.126
-238.527
-228.234
-218.286
-208.726
-199.588
-190.91
-182.723
-175.053
-167.926
-161.363
-155.382
-149.997
-145.214
-141.039
-137.471
-134.51
-132.149
-130.378
-129.183
-128.549
-128.457
-128.885
-129.81
-131.206
-133.045
-135.297
-137.932
-140.917
-144.219
-147.803
-151.635
-155.679
-159.9
-164.263
-168.734
-173.277
-177.861
-182.454
-187.024
-191.544
-195.985
-200.322
-204.53
-208.589
-212.478
-216.182
-219.685
-222.975
-226.041
-228.877
-231.476
-233.836
-235.954
-237.83
-239.468
-240.871
-242.044
-242.995
-243.732
-244.265
-244.606
-244.766
-244.76
-244.6
-244.302
-243.88
-243.349
-242.725
-242.023
-241.256
-240.442
-239.593
-238.723
-237.847
-236.976
-236.123
-235.298
-234.511
-233.771
-233.084
-232.459
-231.899
-231.408
-230.991
-230.648
-230.382
-230.191
-230.076
-230.036
-230.066
-230.165
-230.328
-230.55
-230.826
-231.15
-231.517
-231.92
-232.352
-232.808
-233.281
-233.765
-234.252
-234.738
-235.215
-235.678
-236.122
-236.539
-236.927
-237.28
-237.594
-237.867
-238.095
-238.278
-238.414
-238.502
-238.541
-238.533
-238.478
-238.377
-238.231
-238.043
-237.814
-237.548
-237.247
-236.915
-236.553
-236.166
-235.756
-235.325
-234.875
-234.408
-233.926
-233.43
-232.921
-232.399
-231.865
-231.319
-230.761
-230.191
-229.607
-229.008
-228.392
-227.756
-227.097
-226.411
-225.692
-224.937
-224.139
-223.294
-222.397
-221.439
-220.416
-219.32
-218.145
-216.884
-215.532
-214.08
-212.523
-210.856
-209.073
-207.171
-205.147
-202.998
-200.72
-198.315
-195.781
-193.12
-190.332
-187.42
-184.385
-181.231
-177.965
-174.591
-171.116
-167.548
-163.898
-160.178
-156.403
-152.586
-148.743
-144.891
-141.045
-137.223
-133.442
-129.715
-126.057
-122.482
-119.006
-115.647
-112.425
-109.354
-106.447
-103.719
-101.183
-98.854
-96.739
-94.838
-93.154
-91.692
-90.463
-89.491
-88.791
-88.369
-88.224
-88.356
-88.755
-89.409
-90.291
-91.35
-92.538
-93.811
-95.134
-96.49
-97.85
-99.163
-100.371
-101.404
-102.209
-102.761
-103.037
-103.018
-102.71
-102.143
-101.386
-100.542
-99.708
-98.974
-98.421
-98.114
-98.147
-98.618
-99.663
-101.486
-104.178
-107.663
-111.796
-116.294
-120.779
-124.925
-128.268
-130.117
-130.119
-128.408
-125.331
-121.633
-118.365
-116.37
-116.328
-119.197
-124.41
-129.382
-132.92
-133.854
-131.844
-129.62
-124.292
-108.324
-75.122
-16.886
65.485
161.379
260.867
353.425
432.823
499.296
551.427
587.349
605.243
602.113
577.356
532.555
470.592
395.788
313.099
227.554
143.733
65.996
-1.839
-56.969
-97.708
-123.808
-136.555
-138.08
-130.725
-117.396
-101.097
-84.552
-70.17
-59.235
-51.929
-47.962
-46.741
-47.353
-48.858
-50.213
-50.399
-49.084
-46.413
-42.701
-38.442
-34.07
-29.945
-26.516
-24.19
-23.098
-23.197
-24.307
-26.161
-28.555
-31.295
-34.165
-36.95
-39.438
-41.483
-43.015
-43.995
-44.411
-44.254
-43.505
-42.17
-40.292
-37.914
-35.086
-31.861
-28.271
-24.368
-20.213
-15.87
-11.414
-6.895
-2.339
2.233
6.813
11.401
15.993
20.601
25.25
29.961
34.75
39.632
44.614
49.71
54.939
60.319
65.867
71.597
77.518
83.636
89.959
96.491
103.232
110.179
117.323
124.659
132.181
139.883
147.755
155.787
163.966
172.278
180.707
189.235
197.841
206.501
215.188
223.878
232.54
241.148
249.668
258.071
266.323
274.392
282.244
289.847
297.165
304.165
310.814
317.079
322.93
328.335
333.265
337.694
341.596
344.949
347.731
349.925
351.513
352.484
352.827
352.535
351.603
350.031
347.821
344.976
341.507
337.424
332.743
327.479
321.654
315.29
308.412
301.047
293.225
284.978
276.338
267.341
258.024
248.422
238.576
228.524
218.306
207.961
197.528
187.048
176.559
166.098
155.704
145.411
135.256
125.269
115.484
105.929
96.631
87.617
78.909
70.527
62.491
54.816
47.517
40.605
34.09
27.978
22.275
16.982
12.1
7.627
3.56
-0.108
-3.385
-6.28
-8.804
-10.97
-12.791
-14.283
-15.463
-16.346
-16.952
-17.299
-17.406
-17.293
-16.979
-16.484
-15.827
-15.028
-14.105
-13.077
-11.961
-10.773
-9.532
-8.251
-6.945
-5.629
-4.315
-3.014
-1.737
-0.494
0.706
1.856
2.95
3.982
4.949
5.846
6.673
7.426
8.107
8.715
9.251
9.718
10.119
10.456
10.733
10.955
11.126
11.25
11.333
11.38
11.394
11.382
11.348
11.295
11.229
11.153
11.071
10.985
10.898
10.812
10.729
10.65
10.577
10.508
10.444
10.383
10.325
10.268
10.209
10.146
10.076
9.996
9.903
9.792
9.662
9.507
9.324
9.111
8.864
8.58
8.257
7.891
7.482
7.027
6.525
5.978
5.384
4.745
4.063
3.341
2.583
1.793
0.976
0.137
-0.718
-1.581
-2.445
-3.302
-4.145
-4.964
-5.75
-6.494
-7.187
-7.819
-8.381
-8.865
-9.263
-9.567
-9.77
-9.865
-9.847
-9.712
-9.456
-9.075
-8.567
-7.932
-7.169
-6.282
-5.272
-4.146
-2.912
-1.579
-0.161
1.331
2.881
4.476
6.1
7.736
9.368
10.985
12.57
14.107
15.579
16.968
18.257
19.431
20.477
21.38
22.124
22.7
23.099
23.318
23.351
23.187
22.809
22.197
21.337
20.226
18.862
17.245
15.381
13.282
10.978
8.52
5.954
3.32
0.655
-2.012
-4.634
-7.149
-9.494
-11.604
-13.432
-14.955
-16.143
-16.974
-17.447
-17.572
-17.414
-17.087
-16.696
-16.348
-16.153
-16.187
-16.58
-17.522
-19.121
-21.412
-24.312
-27.553
-30.879
-34.1
-36.897
-38.872
-39.727
-39.243
-37.57
-35.381
-33.34
-32.008
-32.005
-33.806
-37.685
-43.75
-51.332
-58.699
-63.822
-64.512
-58.52
-43.763
-18.187
20.089
72.154
136.38
208.978
286.242
363.91
440.762
518.796
595.192
664.198
716.109
736.158
717.184
659.854
569.251
456.466
332.397
206.218
90.224
-2
-62.889
-91.373
-95.144
-89.163
-82.966
-79.729
-78.211
-73.497
-64.844
-55.114
-47.046
-43.177
-43.726
-47.171
-52.196
-57.466
-61.772
-64.266
-64.532
-62.719
-59.377
-55.174
-50.678
-46.343
-42.615
-39.922
-38.479
-38.279
-39.18
-40.935
-43.325
-46.199
-49.393
-52.735
-56.077
-59.259
-62.127
-64.596
-66.599
-68.09
-69.055
-69.475
-69.341
-68.685
-67.554
-65.996
-64.062
-61.789
-59.205
-56.356
-53.293
-50.076
-46.769
-43.412
-40.026
-36.626
-33.215
-29.794
-26.357
-22.881
-19.336
-15.695
-11.938
-8.048
-4.013
0.185
4.568
9.153
13.96
19.001
24.286
29.823
35.62
41.678
47.995
54.567
61.382
68.432
75.707
83.195
90.883
98.755
106.792
114.974
123.278
131.68
140.152
148.663
157.18
165.669
174.096
182.424
190.615
198.63
206.43
213.975
221.227
228.145
234.691
240.826
246.514
251.72
256.41
260.553
264.121
267.087
269.427
271.123
272.157
272.515
272.187
271.166
269.449
267.036
263.932
260.145
255.686
250.569
244.815
238.445
231.484
223.962
215.911
207.364
198.359
188.936
179.135
169.001
158.577
147.91
137.047
126.034
114.919
103.749
92.572
81.432
70.373
59.441
48.674
38.114
27.797
17.758
8.03
-1.357
-10.376
-19.003
-27.215
-34.996
-42.329
-49.202
-55.606
-61.535
-66.984
-71.955
-76.448
-80.471
-84.029
-87.135
-89.8
-92.04
-93.873
-95.317
-96.393
-97.124
-97.533
-97.643
-97.481
-97.07
-96.437
-95.607
-94.605
-93.456
-92.184
-90.812
-89.363
-87.859
-86.32
-84.765
-83.212
-81.679
-80.179
-78.728
-77.337
-76.018
-74.78
-73.632
-72.579
-71.628
-70.782
-70.043
-69.412
-68.889
-68.473
-68.161
-67.948
-67.832
-67.805
-67.862
-67.997
-68.202
-68.47
-68.794
-69.166
-69.579
-70.026
-70.499
-70.993
-71.5
-72.014
-72.531
-73.045
-73.551
-74.045
-74.525
-74.986
-75.427
-75.846
-76.241
-76.612
-76.959
-77.281
-77.58
-77.857
-78.114
-78.353
-78.576
-78.788
-78.992
-79.191
-79.389
-79.591
-79.8
-80.021
-80.258
-80.514
-80.793
-81.099
-81.435
-81.803
-82.206
-82.646
-83.124
-83.642
-84.2
-84.8
-85.44
-86.12
-86.838
-87.593
-88.382
-89.203
-90.05
-90.919
-91.808
-92.709
-93.619
-94.531
-95.439
-96.336
-97.215
-98.07
-98.893
-99.676
-100.413
-101.095
-101.716
-102.27
-102.75
-103.15
-103.464
-103.687
-103.816
-103.845
-103.773
-103.595
-103.311
-102.918
-102.417
-101.809
-101.096
-100.281
-99.37
-98.37
-97.292
-96.145
-94.94
-93.689
-92.406
-91.104
-89.795
-88.49
-87.201
-85.938
-84.717
-83.553
-82.462
-81.456
-80.551
-79.756
-79.086
-78.552
-78.162
-77.915
-77.815
-77.867
-78.085
-78.493
-79.108
-79.938
-80.989
-82.26
-83.744
-85.431
-87.296
-89.293
-91.38
-93.516
-95.67
-97.832
-99.972
-102.046
-104.001
-105.76
-107.272
-108.505
-109.428
-110.023
-110.299
-110.282
-110.034
-109.658
-109.239
-108.86
-108.614
-108.564
-108.805
-109.437
-110.586
-112.458
-115.156
-118.628
-122.704
-127.014
-131.109
-134.634
-137.118
-137.895
-136.643
-133.47
-128.883
-124.098
-120.354
-118.462
-119.249
-123.487
-131.257
-141.749
-153.223
-162.706
-166.844
-162.668
-147.224
-117.794
-73.63
-16.309
52.073
128.976
214.059
308.683
409.402
507.212
587.608
635.415
643.739
615.433
561.388
493.738
419.988
342.672
260.879
175.218
89.551
9.552
-58.724
-111.649
-148.69
-170.954
-180.609
-180.233
-172.485
-160.599
-147.935
-137.216
-130.022
-126.776
-127.141
-130.357
-135.467
-141.258
-146.357
-149.51
-150.054
-148.002
-143.764
-137.989
-131.346
-124.417
-117.793
-112.032
-107.43
-104.053
-101.833
-100.567
-100.061
-100.175
-100.745
-101.625
-102.722
-103.926
-105.113
-106.172
-106.964
-107.385
-107.381
-106.903
-105.921
-104.434
-102.454
-100.023
-97.199
-94.03
-90.553
-86.801
-82.8
-78.591
-74.225
-69.753
-65.227
-60.681
-56.131
-51.59
-47.062
-42.536
-37.999
-33.424
-28.775
-24.03
-19.167
-14.167
-9.017
-3.698
1.809
7.52
13.449
19.608
26.005
32.648
39.539
46.675
54.053
61.664
69.497
77.537
85.772
94.186
102.762
111.482
120.322
129.258
138.266
147.317
156.38
165.423
174.411
183.308
192.079
200.685
209.09
217.256
225.144
232.717
239.937
246.769
253.178
259.128
264.59
269.531
273.925
277.746
280.97
283.577
285.551
286.876
287.542
287.542
286.869
285.525
283.511
280.834
277.502
273.53
268.933
263.73
257.945
251.603
244.732
237.364
229.53
221.268
212.612
203.603
194.278
184.679
174.847
164.824
154.652
144.372
134.026
123.656
113.301
102.999
92.79
82.709
72.791
63.068
53.571
44.33
35.369
26.714
18.385
10.401
2.779
-4.469
-11.332
-17.801
-23.872
-29.541
-34.807
-39.673
-44.141
-48.218
-51.911
-55.23
-58.187
-60.792
-63.062
-65.01
-66.653
-68.008
-69.093
-69.926
-70.526
-70.911
-71.101
-71.116
-70.973
-70.693
-70.293
-69.793
-69.209
-68.559
-67.858
-67.122
-66.365
-65.6
-64.839
-64.094
-63.375
-62.69
-62.048
-61.455
-60.918
-60.442
-60.032
-59.69
-59.419
-59.222
-59.098
-59.049
-59.075
-59.173
-59.343
-59.583
-59.891
-60.263
-60.697
-61.188
-61.732
-62.325
-62.962
-63.638
-64.348
-65.086
-65.847
-66.625
-67.416
-68.214
-69.014
-69.812
-70.602
-71.382
-72.146
-72.891
-73.613
-74.309
-74.975
-75.609
-76.208
-76.77
-77.294
-77.777
-78.218
-78.617
-78.973
-79.284
-79.552
-79.776
-79.957
-80.095
-80.192
-80.249
-80.269
-80.254
-80.205
-80.126
-80.021
-79.891
-79.74
-79.57
-79.383
-79.183
-78.971
-78.75
-78.52
-78.283
-78.039
-77.791
-77.539
-77.282
-77.019
-76.751
-76.475
-76.189
-75.892
-75.58
-75.252
-74.902
-74.529
-74.129
-73.698
-73.232
-72.727
-72.178
-71.58
-70.93
-70.222
-69.452
-68.617
-67.713
-66.738
-65.688
-64.563
-63.364
-62.09
-60.746
-59.336
-57.864
-56.337
-54.762
-53.147
-51.501
-49.833
-48.151
-46.464
-44.783
-43.12
-41.487
-39.9
-38.373
-36.92
-35.555
-34.29
-33.138
-32.111
-31.213
-30.452
-29.835
-29.376
-29.098
-29.02
-29.152
-29.499
-30.066
-30.845
-31.828
-32.997
-34.316
-35.753
-37.28
-38.874
-40.527
-42.228
-43.946
-45.64
-47.253
-48.733
-50.057
-51.2
-52.138
-52.878
-53.439
-53.876
-54.284
-54.73
-55.257
-55.914
-56.736
-57.784
-59.148
-60.894
-63.126
-65.992
-69.535
-73.704
-78.337
-83.037
-87.359
-90.913
-93.19
-93.655
-92.069
-88.482
-83.398
-77.868
-72.965
-69.549
-68.436
-70.336
-75.459
-83.323
-92.414
-100.19
-103.787
-100.491
-87.728
-63.028
-24.507
28.554
95.24
172.955
257.875
345.596
431.14
508.628
572.282
617.262
639.865
639.158
615.858
570.244
505.117
423.115
327.423
227.031
129.545
42.91
-24.78
-74.273
-107.493
-127.042
-138.046
-140.729
-135.576
-125.116
-110.839
-96.058
-83.475
-73.757
-67.362
-63.833
-62.311
-62.224
-62.955
-63.954
-64.907
-65.499
-65.397
-64.633
-63.41
-61.894
-60.169
-58.163
-55.822
-53.368
-51.266
-49.769
-48.913
-48.664
-48.965
-49.879
-51.458
-53.503
-55.606
-57.442
-58.832
-59.711
-60.115
-60.012
-59.34
-58.116
-56.426
-54.364
-52.01
-49.399
-46.52
-43.389
-40.053
-36.574
-33.03
-29.469
-25.913
-22.373
-18.854
-15.355
-11.875
-8.394
-4.876
-1.291
2.383
6.163
10.06
14.089
18.271
22.63
27.189
31.968
36.978
42.232
47.738
53.502
59.525
65.803
72.329
79.095
86.094
93.316
100.75
108.384
116.2
124.181
132.305
140.549
148.886
157.285
165.715
174.142
182.533
190.849
199.053
207.107
214.971
222.607
229.976
237.037
243.751
250.082
255.991
261.445
266.409
270.853
274.747
278.065
280.784
282.883
284.344
285.155
285.303
284.781
283.586
281.717
279.179
275.977
272.122
267.629
262.516
256.803
250.516
243.683
236.333
228.5
220.22
211.53
202.469
193.078
183.399
173.474
163.348
153.064
142.666
132.198
121.702
111.22
100.794
90.463
80.266
70.237
60.412
50.822
41.496
32.464
23.748
15.372
7.355
-0.286
-7.538
-14.389
-20.831
-26.858
-32.468
-37.659
-42.435
-46.799
-50.757
-54.319
-57.494
-60.295
-62.734
-64.827
-66.589
-68.038
-69.191
-70.067
-70.685
-71.064
-71.223
-71.182
-70.959
-70.574
-70.045
-69.391
-68.629
-67.777
-66.849
-65.863
-64.833
-63.773
-62.695
-61.611
-60.533
-59.468
-58.427
-57.417
-56.445
-55.518
-54.639
-53.815
-53.05
-52.345
-51.706
-51.132
-50.628
-50.193
-49.829
-49.537
-49.316
-49.169
-49.093
-49.09
-49.16
-49.301
-49.513
-49.795
-50.146
-50.564
-51.048
-51.596
-52.205
-52.875
-53.602
-54.386
-55.223
-56.111
-57.049
-58.034
-59.063
-60.134
-61.244
-62.389
-63.567
-64.773
-66.005
-67.258
-68.529
-69.813
-71.106
-72.404
-73.701
-74.993
-76.275
-77.541
-78.786
-80.007
-81.197
-82.353
-83.471
-84.547
-85.578
-86.561
-87.494
-88.374
-89.2
-89.969
-90.68
-91.333
-91.927
-92.461
-92.934
-93.348
-93.703
-93.999
-94.239
-94.422
-94.552
-94.628
-94.652
-94.628
-94.555
-94.438
-94.276
-94.073
-93.831
-93.553
-93.24
-92.894
-92.517
-92.11
-91.674
-91.209
-90.715
-90.191
-89.636
-89.048
-88.427
-87.77
-87.076
-86.343
-85.567
-84.746
-83.879
-82.963
-81.996
-80.977
-79.901
-78.77
-77.582
-76.336
-75.033
-73.675
-72.262
-70.8
-69.294
-67.749
-66.171
-64.567
-62.943
-61.307
-59.665
-58.023
-56.386
-54.762
-53.158
-51.589
-50.064
-48.595
-47.192
-45.863
-44.621
-43.478
-42.44
-41.508
-40.686
-39.982
-39.411
-38.998
-38.762
-38.711
-38.849
-39.176
-39.689
-40.383
-41.238
-42.216
-43.28
-44.399
-45.555
-46.744
-47.947
-49.123
-50.221
-51.178
-51.953
-52.53
-52.895
-53.033
-52.95
-52.675
-52.272
-51.834
-51.443
-51.163
-51.058
-51.194
-51.662
-52.565
-54.042
-56.276
-59.341
-63.176
-67.589
-72.238
-76.733
-80.752
-83.879
-85.532
-85.413
-83.67
-80.855
-78.032
-76.264
-76.138
-78.162
-82.981
-90.716
-100.634
-111.106
-119.368
-122.421
-118.04
-104.159
-78.564
-39.699
12.816
77.87
152.5
232.74
314.789
394.282
466.034
524.949
566.629
588.13
588.281
567.239
525.875
466.478
393.073
310.64
224.568
139.666
60.023
-10.76
-69.569
-114.403
-144.946
-162.142
-167.86
-164.066
-152.681
-136.063
-116.983
-98.074
-81.144
-67.282
-56.836
-49.986
-47.118
-48.077
-51.928
-57.423
-63.389
-68.831
-73.332
-76.65
-78.208
-77.747
-75.522
-72.01
-67.963
-64.204
-61.079
-58.715
-57.369
-57.094
-57.803
-59.367
-61.378
-63.32
-64.924
-66.052
-66.608
-66.624
-66.086
-64.947
-63.266
-61.136
-58.62
-55.777
-52.621
-49.136
-45.349
-41.31
-37.081
-32.737
-28.324
-23.86
-19.359
-14.827
-10.266
-5.683
-1.062
3.621
8.388
13.251
18.22
23.295
28.49
33.825
39.317
44.987
50.848
56.907
63.171
69.646
76.334
83.233
90.338
97.639
105.128
112.797
120.638
128.64
136.79
145.072
153.469
161.962
170.53
179.147
187.787
196.421
205.019
213.548
221.975
230.266
238.386
246.297
253.964
261.35
268.418
275.131
281.454
287.35
292.788
297.733
302.157
306.029
309.323
312.016
314.087
315.518
316.292
316.398
315.826
314.571
312.631
310.004
306.697
302.716
298.072
292.78
286.857
280.327
273.213
265.542
257.346
248.658
239.514
229.95
220.007
209.726
199.148
188.317
177.277
166.074
154.751
143.353
131.924
120.507
109.145
97.879
86.747
75.787
65.034
54.522
44.283
34.344
24.733
15.472
6.584
-1.913
-10.005
-17.677
-24.92
-31.728
-38.096
-44.023
-49.51
-54.562
-59.183
-63.384
-67.174
-70.567
-73.577
-76.219
-78.512
-80.474
-82.124
-83.485
-84.575
-85.418
-86.035
-86.448
-86.678
-86.746
-86.674
-86.481
-86.188
-85.814
-85.376
-84.892
-84.379
-83.852
-83.325
-82.811
-82.322
-81.87
-81.462
-81.108
-80.815
-80.588
-80.432
-80.351
-80.347
-80.422
-80.577
-80.811
-81.123
-81.512
-81.975
-82.51
-83.114
-83.784
-84.514
-85.303
-86.145
-87.037
-87.974
-88.952
-89.967
-91.015
-92.091
-93.192
-94.312
-95.448
-96.595
-97.751
-98.91
-100.069
-101.224
-102.371
-103.508
-104.631
-105.738
-106.824
-107.888
-108.928
-109.941
-110.924
-111.876
-112.795
-113.679
-114.527
-115.335
-116.103
-116.829
-117.511
-118.148
-118.739
-119.282
-119.775
-120.219
-120.612
-120.954
-121.245
-121.485
-121.675
-121.816
-121.91
-121.957
-121.961
-121.925
-121.85
-121.739
-121.598
-121.428
-121.234
-121.021
-120.79
-120.548
-120.296
-120.041
-119.786
-119.534
-119.291
-119.06
-118.846
-118.651
-118.481
-118.339
-118.227
-118.148
-118.105
-118.1
-118.134
-118.206
-118.318
-118.467
-118.652
-118.872
-119.122
-119.399
-119.698
-120.013
-120.339
-120.67
-120.998
-121.316
-121.615
-121.888
-122.128
-122.326
-122.475
-122.566
-122.593
-122.548
-122.423
-122.213
-121.912
-121.512
-121.01
-120.4
-119.68
-118.847
-117.9
-116.838
-115.664
-114.383
-113.001
-111.526
-109.966
-108.33
-106.63
-104.879
-103.089
-101.269
-99.431
-97.588
-95.753
-93.946
-92.183
-90.478
-88.848
-87.306
-85.868
-84.55
-83.362
-82.308
-81.397
-80.635
-80.041
-79.643
-79.461
-79.505
-79.784
-80.297
-81.041
-82.011
-83.185
-84.519
-85.974
-87.511
-89.101
-90.733
-92.379
-93.998
-95.537
-96.921
-98.101
-99.051
-99.742
-100.158
-100.311
-100.226
-99.967
-99.641
-99.334
-99.132
-99.13
-99.401
-100.033
-101.106
-102.734
-105.099
-108.294
-112.292
-116.927
-121.817
-126.574
-130.894
-134.319
-136.253
-136.334
-134.435
-130.943
-126.96
-123.397
-120.888
-120.357
-122.471
-127.401
-135.125
-143.433
-148.954
-149.967
-143.918
-130.007
-108.01
-73.725
-25.951
36.467
114.248
202.962
301.98
407.805
511.968
604.52
668.367
691.671
672.738
618.586
544.957
463.482
378.456
287.805
189.319
88.628
-4.468
-77.281
-123.886
-149.343
-160.186
-164.357
-165.479
-160.486
-148.745
-131.462
-111.134
-92.174
-76.979
-65.879
-58.996
-56.307
-57.431
-61.52
-67.256
-73.24
-78.372
-82.3
-84.909
-85.746
-84.624
-81.777
-77.694
-73.198
-69.173
-66.004
-63.814
-62.809
-63.023
-64.382
-66.758
-69.767
-72.885
-75.779
-78.259
-80.202
-81.605
-82.453
-82.692
-82.345
-81.487
-80.179
-78.472
-76.393
-73.933
-71.101
-67.939
-64.502
-60.859
-57.077
-53.192
-49.222
-45.179
-41.067
-36.888
-32.638
-28.295
-23.831
-19.223
-14.458
-9.526
-4.417
0.884
6.401
12.154
18.163
24.438
30.989
37.821
44.939
52.344
60.032
67.996
76.225
84.707
93.435
102.396
111.576
120.96
130.53
140.263
150.139
160.133
170.217
180.362
190.533
200.699
210.824
220.871
230.803
240.58
250.164
259.515
268.593
277.359
285.772
293.795
301.39
308.522
315.156
321.26
326.803
331.758
336.099
339.804
342.854
345.231
346.923
347.918
348.21
347.796
346.673
344.846
342.321
339.107
335.219
330.673
325.49
319.694
313.311
306.371
298.907
290.954
282.549
273.732
264.544
255.026
245.223
235.178
224.937
214.544
204.044
193.481
182.898
172.337
161.841
151.448
141.196
131.121
121.257
111.636
102.288
93.239
84.515
76.137
68.125
60.494
53.259
46.43
40.016
34.02
28.444
23.289
18.55
14.221
10.294
6.757
3.597
0.799
-1.655
-3.782
-5.603
-7.139
-8.412
-9.444
-10.257
-10.876
-11.323
-11.622
-11.794
-11.862
-11.848
-11.772
-11.655
-11.516
-11.373
-11.243
-11.142
-11.084
-11.081
-11.147
-11.289
-11.519
-11.841
-12.263
-12.788
-13.418
-14.156
-15
-15.949
-17
-18.149
-19.391
-20.719
-22.128
-23.61
-25.157
-26.76
-28.412
-30.104
-31.826
-33.571
-35.329
-37.092
-38.851
-40.598
-42.326
-44.026
-45.691
-47.316
-48.893
-50.418
-51.884
-53.288
-54.626
-55.893
-57.088
-58.207
-59.249
-60.212
-61.096
-61.901
-62.628
-63.277
-63.85
-64.348
-64.774
-65.13
-65.419
-65.642
-65.802
-65.904
-65.948
-65.938
-65.876
-65.767
-65.611
-65.413
-65.174
-64.898
-64.587
-64.243
-63.87
-63.47
-63.044
-62.597
-62.13
-61.646
-61.148
-60.639
-60.121
-59.598
-59.071
-58.545
-58.021
-57.502
-56.991
-56.49
-56.001
-55.528
-55.073
-54.638
-54.225
-53.837
-53.477
-53.146
-52.847
-52.583
-52.354
-52.164
-52.013
-51.902
-51.832
-51.804
-51.817
-51.87
-51.961
-52.091
-52.255
-52.453
-52.679
-52.93
-53.201
-53.489
-53.787
-54.089
-54.389
-54.681
-54.957
-55.212
-55.439
-55.631
-55.78
-55.881
-55.927
-55.913
-55.831
-55.678
-55.445
-55.13
-54.728
-54.235
-53.649
-52.968
-52.194
-51.328
-50.376
-49.342
-48.233
-47.056
-45.818
-44.529
-43.198
-41.833
-40.441
-39.034
-37.622
-36.221
-34.846
-33.511
-32.227
-31.01
-29.872
-28.83
-27.895
-27.069
-26.36
-25.777
-25.337
-25.065
-24.982
-25.096
-25.412
-25.933
-26.658
-27.583
-28.688
-29.934
-31.282
-32.697
-34.154
-35.644
-37.141
-38.605
-39.983
-41.21
-42.246
-43.079
-43.691
-44.064
-44.205
-44.14
-43.938
-43.706
-43.528
-43.478
-43.629
-44.059
-44.864
-46.128
-47.955
-50.481
-53.772
-57.807
-62.447
-67.39
-72.3
-76.92
-80.908
-83.78
-85.181
-84.938
-83.311
-81.098
-79.044
-77.522
-76.913
-77.804
-80.71
-85.907
-91.751
-94.673
-91.852
-81.784
-66.059
-47.932
-26.804
0.93
41.438
101.55
181.51
277.503
383.3
487.813
581.672
654.318
693.432
695.325
659.589
591.602
504.849
406.199
303.038
203.75
110.296
30.142
-32.165
-79.784
-113.725
-138.33
-156.776
-166.387
-166.227
-156.881
-140.5
-121.925
-104.89
-91.22
-81.502
-75.536
-73.572
-75.617
-80.88
-88.179
-95.849
-102.429
-107.442
-110.685
-111.775
-110.645
-107.496
-102.74
-97.32
-92.233
-87.932
-84.664
-82.624
-81.798
-82.155
-83.608
-85.784
-88.223
-90.604
-92.682
-94.323
-95.515
-96.222
-96.409
-96.095
-95.321
-94.14
-92.611
-90.761
-88.598
-86.138
-83.406
-80.447
-77.322
-74.09
-70.806
-67.503
-64.197
-60.899
-57.612
-54.331
-51.047
-47.733
-44.357
-40.894
-37.323
-33.625
-29.782
-25.769
-21.556
-17.118
-12.435
-7.488
-2.263
3.251
9.066
15.185
21.611
28.34
35.366
42.682
50.281
58.154
66.287
74.665
83.269
92.078
101.071
110.219
119.494
128.862
138.289
147.737
157.167
166.539
175.809
184.934
193.871
202.575
211
219.104
226.841
234.169
241.045
247.43
253.285
258.575
263.264
267.324
270.727
273.448
275.466
276.765
277.331
277.152
276.224
274.544
272.112
268.934
265.018
260.378
255.03
248.995
242.297
234.964
227.027
218.521
209.481
199.947
189.959
179.563
168.801
157.72
146.367
134.79
123.037
111.156
99.194
87.199
75.216
63.288
51.46
39.771
28.26
16.965
5.919
-4.846
-15.299
-25.414
-35.167
-44.536
-53.503
-62.051
-70.167
-77.843
-85.07
-91.844
-98.163
-104.028
-109.443
-114.413
-118.946
-123.052
-126.743
-130.032
-132.935
-135.469
-137.652
-139.501
-141.038
-142.282
-143.253
-143.971
-144.458
-144.732
-144.815
-144.725
-144.481
-144.103
-143.606
-143.009
-142.328
-141.578
-140.773
-139.927
-139.052
-138.16
-137.262
-136.367
-135.483
-134.618
-133.779
-132.971
-132.199
-131.466
-130.777
-130.133
-129.535
-128.985
-128.483
-128.028
-127.621
-127.258
-126.941
-126.666
-126.433
-126.24
-126.085
-125.966
-125.881
-125.828
-125.806
-125.813
-125.846
-125.903
-125.983
-126.082
-126.2
-126.333
-126.48
-126.638
-126.806
-126.981
-127.162
-127.346
-127.531
-127.715
-127.897
-128.074
-128.244
-128.407
-128.558
-128.698
-128.824
-128.935
-129.028
-129.103
-129.157
-129.189
-129.196
-129.178
-129.133
-129.06
-128.956
-128.822
-128.657
-128.459
-128.229
-127.968
-127.675
-127.351
-126.998
-126.616
-126.207
-125.772
-125.313
-124.831
-124.33
-123.811
-123.276
-122.728
-122.17
-121.603
-121.03
-120.453
-119.874
-119.296
-118.72
-118.147
-117.578
-117.016
-116.46
-115.911
-115.37
-114.834
-114.305
-113.78
-113.259
-112.738
-112.215
-111.687
-111.148
-110.597
-110.027
-109.434
-108.812
-108.155
-107.458
-106.715
-105.92
-105.066
-104.148
-103.159
-102.095
-100.949
-99.717
-98.394
-96.977
-95.461
-93.846
-92.129
-90.309
-88.389
-86.373
-84.264
-82.066
-79.786
-77.431
-75.008
-72.528
-70.001
-67.435
-64.839
-62.225
-59.603
-56.99
-54.4
-51.846
-49.339
-46.89
-44.511
-42.219
-40.028
-37.946
-35.978
-34.128
-32.408
-30.842
-29.446
-28.229
-27.197
-26.345
-25.673
-25.185
-24.869
-24.704
-24.663
-24.714
-24.832
-25.003
-25.217
-25.464
-25.715
-25.93
-26.066
-26.079
-25.951
-25.679
-25.256
-24.719
-24.094
-23.369
-22.651
-22.137
-21.98
-22.38
-23.405
-24.868
-26.795
-29.448
-32.773
-36.508
-40.23
-43.149
-44.941
-45.939
-46.115
-45.086
-42.769
-39.287
-35.413
-32.765
-32.338
-34.126
-38.014
-44.184
-52.957
-64.203
-76.713
-87.204
-91.421
-87.39
-74.751
-54.483
-29.153
2.461
44.337
100.713
175.96
268.721
371.105
470.694
554.525
613.423
644.183
650.911
637.83
608.124
564.467
505.996
434.588
354.834
270.762
187.949
111.244
43.609
-12.118
-54.356
-83.403
-100.475
-107.448
-106.473
-99.868
-90.006
-79.285
-69.914
-62.998
-58.638
-56.507
-56.065
-56.625
-57.481
-57.784
-56.564
-53.459
-48.703
-42.746
-36.164
-29.465
-23.002
-17.188
-12.508
-9.196
-7.265
-6.612
-6.991
-8.195
-10.094
-12.518
-15.275
-18.189
-21.057
-23.693
-25.999
-27.895
-29.321
-30.249
-30.641
-30.482
-29.803
-28.653
-27.081
-25.133
-22.842
-20.234
-17.355
-14.258
-11.004
-7.652
-4.239
-0.783
2.706
6.227
9.785
13.389
17.067
20.856
24.783
28.872
33.139
37.596
42.263
47.158
52.297
57.693
63.357
69.293
75.506
81.997
88.762
95.794
103.084
110.616
118.377
126.351
134.523
142.876
151.389
160.042
168.81
177.669
186.591
195.548
204.505
213.431
222.289
231.043
239.657
248.093
256.313
264.278
271.953
279.299
286.281
292.864
299.013
304.697
309.885
314.55
318.664
322.204
325.149
327.48
329.181
330.239
330.645
330.392
329.476
327.897
325.658
322.763
319.223
315.049
310.257
304.866
298.897
292.375
285.328
277.787
269.783
261.353
252.531
243.357
233.87
224.11
214.119
203.937
193.606
183.168
172.665
162.137
151.624
141.166
130.799
120.561
110.485
100.604
90.95
81.551
72.434
63.623
55.139
47.004
39.233
31.841
24.84
18.239
12.045
6.261
0.889
-4.072
-8.626
-12.779
-16.539
-19.914
-22.918
-25.563
-27.863
-29.834
-31.494
-32.86
-33.951
-34.785
-35.384
-35.766
-35.951
-35.96
-35.813
-35.529
-35.127
-34.626
-34.044
-33.397
-32.703
-31.977
-31.234
-30.486
-29.748
-29.029
-28.341
-27.691
-27.089
-26.54
-26.05
-25.623
-25.264
-24.973
-24.753
-24.605
-24.529
-24.525
-24.59
-24.724
-24.925
-25.189
-25.514
-25.897
-26.333
-26.82
-27.354
-27.93
-28.544
-29.194
-29.874
-30.581
-31.311
-32.061
-32.827
-33.606
-34.395
-35.191
-35.992
-36.796
-37.602
-38.408
-39.213
-40.017
-40.818
-41.618
-42.414
-43.208
-43.999
-44.787
-45.572
-46.354
-47.132
-47.908
-48.681
-49.451
-50.218
-50.982
-51.743
-52.502
-53.259
-54.014
-54.766
-55.518
-56.267
-57.016
-57.765
-58.513
-59.262
-60.01
-60.759
-61.508
-62.257
-63.004
-63.75
-64.493
-65.232
-65.967
-66.695
-67.417
-68.13
-68.833
-69.526
-70.208
-70.878
-71.534
-72.177
-72.803
-73.414
-74.006
-74.577
-75.127
-75.652
-76.149
-76.618
-77.054
-77.455
-77.818
-78.138
-78.412
-78.636
-78.809
-78.924
-78.978
-78.969
-78.893
-78.748
-78.532
-78.243
-77.878
-77.437
-76.92
-76.325
-75.653
-74.902
-74.073
-73.167
-72.185
-71.129
-70.001
-68.805
-67.547
-66.235
-64.877
-63.482
-62.061
-60.624
-59.182
-57.746
-56.327
-54.934
-53.575
-52.261
-51.004
-49.818
-48.716
-47.71
-46.809
-46.024
-45.365
-44.843
-44.462
-44.22
-44.122
-44.174
-44.392
-44.8
-45.416
-46.248
-47.298
-48.567
-50.051
-51.741
-53.613
-55.623
-57.728
-59.89
-62.082
-64.293
-66.494
-68.637
-70.666
-72.508
-74.115
-75.47
-76.554
-77.349
-77.869
-78.136
-78.206
-78.2
-78.222
-78.365
-78.735
-79.407
-80.471
-82.074
-84.391
-87.548
-91.564
-96.291
-101.425
-106.635
-111.589
-115.888
-119.046
-120.654
-120.608
-119.276
-117.501
-116.291
-116.534
-118.937
-124.086
-132.236
-143.046
-155.211
-166.424
-173.811
-174.377
-165.489
-144.984
-110.939
-62.14
0.873
76.145
159.637
245.213
328.219
404.77
471.699
528.382
571.474
595.597
595.806
566.064
504.783
415.234
304.88
186.376
74.154
-17.159
-79.144
-111.664
-122.071
-123.645
-125.188
-129.555
-135.306
-137.459
-134.888
-130.039
-125.49
-123.928
-125.861
-129.942
-135.076
-140.257
-144.446
-146.818
-146.907
-144.643
-140.404
-134.914
-128.782
-122.465
-116.481
-111.302
-107.221
-104.384
-102.761
-102.167
-102.431
-103.405
-104.919
-106.822
-108.973
-111.237
-113.475
-115.531
-117.277
-118.627
-119.52
-119.928
-119.83
-119.207
-118.07
-116.468
-114.449
-112.066
-109.359
-106.357
-103.101
-99.647
-96.057
-92.397
-88.712
-85.026
-81.351
-77.695
-74.055
-70.426
-66.784
-63.096
-59.331
-55.467
-51.482
-47.364
-43.091
-38.638
-33.982
-29.103
-23.984
-18.613
-12.977
-7.066
-0.874
5.599
12.352
19.377
26.668
34.219
42.021
50.063
58.333
66.813
75.488
84.336
93.336
102.461
111.682
120.969
130.287
139.605
148.885
158.089
167.181
176.12
184.867
193.384
201.629
209.563
217.147
224.343
231.114
237.426
243.243
248.536
253.274
257.431
260.983
263.909
266.193
267.817
268.772
269.049
268.644
267.555
265.785
263.34
260.23
256.466
252.067
247.051
241.443
235.267
228.553
221.333
213.64
205.51
196.982
188.094
178.889
169.408
159.695
149.793
139.746
129.599
119.395
109.178
98.988
88.868
78.857
68.993
59.313
49.851
40.64
31.71
23.088
14.801
6.871
-0.682
-7.84
-14.589
-20.916
-26.813
-32.271
-37.288
-41.862
-45.995
-49.689
-52.951
-55.79
-58.216
-60.241
-61.881
-63.15
-64.068
-64.652
-64.922
-64.9
-64.607
-64.065
-63.296
-62.323
-61.169
-59.856
-58.407
-56.844
-55.188
-53.461
-51.681
-49.869
-48.042
-46.218
-44.413
-42.642
-40.92
-39.258
-37.669
-36.162
-34.748
-33.433
-32.223
-31.124
-30.14
-29.273
-28.524
-27.894
-27.383
-26.989
-26.709
-26.542
-26.483
-26.528
-26.673
-26.913
-27.243
-27.656
-28.147
-28.711
-29.341
-30.031
-30.776
-31.569
-32.406
-33.281
-34.188
-35.122
-36.079
-37.054
-38.043
-39.043
-40.049
-41.058
-42.07
-43.081
-44.09
-45.096
-46.097
-47.094
-48.086
-49.073
-50.055
-51.033
-52.007
-52.976
-53.944
-54.908
-55.872
-56.834
-57.796
-58.759
-59.724
-60.69
-61.658
-62.63
-63.605
-64.583
-65.566
-66.553
-67.545
-68.542
-69.542
-70.547
-71.556
-72.568
-73.582
-74.597
-75.61
-76.622
-77.63
-78.632
-79.626
-80.61
-81.581
-82.539
-83.481
-84.405
-85.308
-86.189
-87.045
-87.875
-88.676
-89.445
-90.179
-90.876
-91.533
-92.148
-92.716
-93.236
-93.703
-94.115
-94.467
-94.758
-94.983
-95.14
-95.224
-95.232
-95.163
-95.015
-94.784
-94.47
-94.071
-93.586
-93.015
-92.358
-91.616
-90.787
-89.872
-88.873
-87.79
-86.626
-85.384
-84.067
-82.681
-81.233
-79.732
-78.187
-76.607
-75.002
-73.384
-71.763
-70.149
-68.549
-66.973
-65.43
-63.932
-62.492
-61.123
-59.834
-58.635
-57.537
-56.548
-55.679
-54.933
-54.308
-53.809
-53.441
-53.218
-53.165
-53.296
-53.62
-54.141
-54.861
-55.776
-56.88
-58.151
-59.547
-61.028
-62.559
-64.113
-65.677
-67.22
-68.697
-70.053
-71.221
-72.155
-72.833
-73.234
-73.34
-73.157
-72.705
-72.032
-71.25
-70.461
-69.756
-69.245
-69.01
-69.141
-69.789
-71.133
-73.296
-76.295
-79.99
-84.073
-88.23
-92.163
-95.484
-97.711
-98.453
-97.609
-95.56
-93.169
-91.419
-91.137
-93.011
-97.66
-105.353
-115.75
-127.536
-138.391
-145.446
-145.801
-136.869
-116.251
-82.069
-33.428
29.188
103.726
186.675
273.521
359.5
439.444
507.888
559.887
591.541
600.099
585.524
550.566
497.265
428.169
345.704
250.276
148.207
50.158
-34.136
-93.797
-126.752
-140.15
-140.679
-136.434
-131.557
-124.273
-114.956
-104.75
-95.008
-88.61
-86.583
-88.217
-92.528
-98.039
-103.209
-106.837
-108.287
-107.389
-104.413
-100.001
-94.752
-89.177
-83.882
-79.424
-76.103
-74.043
-73.174
-73.275
-74.161
-75.677
-77.649
-79.905
-82.296
-84.683
-86.929
-88.912
-90.529
-91.705
-92.389
-92.557
-92.191
-91.292
-89.89
-88.031
-85.764
-83.134
-80.176
-76.918
-73.406
-69.691
-65.828
-61.879
-57.882
-53.86
-49.83
-45.799
-41.767
-37.727
-33.658
-29.531
-25.322
-21.013
-16.59
-12.042
-7.353
-2.504
2.52
7.735
13.153
18.781
24.629
30.701
36.999
43.521
50.262
57.213
64.365
71.708
79.234
86.928
94.779
102.769
110.88
119.095
127.39
135.741
144.122
152.504
160.857
169.15
177.352
185.428
193.345
201.069
208.565
215.799
222.738
229.347
235.592
241.442
246.865
251.832
256.315
260.288
263.726
266.609
268.917
270.633
271.745
272.241
272.112
271.355
269.966
267.946
265.298
262.03
258.15
253.672
248.611
242.986
236.818
230.13
222.95
215.305
207.226
198.744
189.893
180.708
171.224
161.48
151.512
141.359
131.06
120.653
110.177
99.67
89.168
78.709
68.326
58.054
47.925
37.971
28.221
18.702
9.441
0.462
-8.213
-16.565
-24.574
-32.226
-39.506
-46.403
-52.909
-59.015
-64.716
-70.01
-74.895
-79.371
-83.441
-87.11
-90.383
-93.267
-95.773
-97.91
-99.69
-101.126
-102.232
-103.022
-103.511
-103.716
-103.652
-103.337
-102.786
-102.018
-101.049
-99.898
-98.581
-97.115
-95.517
-93.805
-91.993
-90.097
-88.133
-86.116
-84.059
-81.976
-79.88
-77.783
-75.697
-73.633
-71.601
-69.61
-67.67
-65.788
-63.971
-62.226
-60.558
-58.972
-57.472
-56.062
-54.744
-53.522
-52.396
-51.368
-50.438
-49.606
-48.871
-48.232
-47.687
-47.235
-46.874
-46.6
-46.41
-46.303
-46.273
-46.319
-46.435
-46.619
-46.865
-47.17
-47.528
-47.937
-48.39
-48.884
-49.414
-49.975
-50.564
-51.176
-51.806
-52.451
-53.107
-53.771
-54.438
-55.106
-55.773
-56.434
-57.088
-57.733
-58.366
-58.988
-59.595
-60.187
-60.763
-61.322
-61.863
-62.385
-62.888
-63.37
-63.831
-64.271
-64.689
-65.083
-65.455
-65.802
-66.126
-66.425
-66.699
-66.946
-67.166
-67.358
-67.521
-67.652
-67.749
-67.811
-67.834
-67.817
-67.756
-67.649
-67.492
-67.281
-67.013
-66.683
-66.288
-65.823
-65.283
-64.665
-63.965
-63.179
-62.304
-61.337
-60.276
-59.118
-57.862
-56.507
-55.053
-53.498
-51.843
-50.09
-48.239
-46.295
-44.261
-42.142
-39.945
-37.679
-35.356
-32.987
-30.584
-28.161
-25.73
-23.306
-20.903
-18.534
-16.212
-13.952
-11.768
-9.679
-7.702
-5.854
-4.149
-2.603
-1.226
-0.032
0.967
1.768
2.367
2.753
2.916
2.835
2.491
1.877
0.986
-0.181
-1.617
-3.309
-5.237
-7.361
-9.64
-12.04
-14.525
-17.078
-19.671
-22.256
-24.79
-27.211
-29.469
-31.544
-33.4
-35.004
-36.359
-37.482
-38.428
-39.307
-40.171
-41.051
-42.1
-43.448
-45.244
-47.678
-50.778
-54.57
-59.217
-64.745
-70.824
-77.022
-82.706
-87.205
-90.313
-91.77
-91.172
-88.517
-84.416
-79.919
-76.563
-75.74
-77.942
-83.535
-92.703
-104.851
-118.45
-130.906
-138.631
-138.161
-126.968
-102.534
-63.035
-7.91
62.415
144.672
233.957
326.402
417.178
502.882
580.521
642.278
682.517
695.973
678.685
636.824
575.54
499.597
414.979
319.989
218.089
118.712
30.036
-36.303
-76.656
-97.545
-105.124
-107.14
-107.286
-103.303
-95.39
-84.74
-73.342
-64.618
-59.694
-58.078
-59.131
-61.679
-64.546
-66.766
-67.28
-65.546
-61.758
-56.428
-50.21
-43.698
-37.363
-31.689
-27.169
-24.076
-22.43
-22.109
-22.869
-24.491
-26.821
-29.68
-32.897
-36.316
-39.767
-43.094
-46.162
-48.86
-51.117
-52.886
-54.13
-54.831
-54.997
-54.657
-53.864
-52.667
-51.102
-49.205
-47.002
-44.535
-41.856
-39.018
-36.07
-33.047
-29.961
-26.82
-23.623
-20.362
-17.021
-13.57
-9.977
-6.212
-2.255
1.91
6.298
10.927
15.813
20.973
26.419
32.16
38.2
44.544
51.19
58.133
65.364
72.871
80.637
88.644
96.875
105.311
113.93
122.71
131.623
140.644
149.742
158.888
168.048
177.185
186.265
195.25
204.101
212.78
221.249
229.468
237.401
245.008
252.255
259.104
265.522
271.476
276.936
281.872
286.259
290.072
293.29
295.896
297.875
299.215
299.908
299.949
299.336
298.073
296.163
293.617
290.445
286.665
282.292
277.35
271.862
265.856
259.361
252.408
245.033
237.27
229.156
220.73
212.031
203.098
193.973
184.694
175.302
165.837
156.339
146.845
137.393
128.02
118.759
109.643
100.704
91.969
83.465
75.217
67.244
59.568
52.203
45.164
38.462
32.105
26.1
20.451
15.159
10.223
5.639
1.401
-2.496
-6.063
-9.311
-12.251
-14.897
-17.263
-19.365
-21.219
-22.841
-24.249
-25.461
-26.494
-27.365
-28.092
-28.693
-29.183
-29.58
-29.898
-30.153
-30.356
-30.522
-30.662
-30.786
-30.904
-31.024
-31.153
-31.298
-31.464
-31.655
-31.872
-32.119
-32.396
-32.703
-33.039
-33.402
-33.791
-34.204
-34.636
-35.084
-35.546
-36.018
-36.495
-36.974
-37.451
-37.922
-38.384
-38.834
-39.267
-39.682
-40.075
-40.445
-40.79
-41.109
-41.4
-41.663
-41.897
-42.102
-42.278
-42.426
-42.547
-42.641
-42.71
-42.755
-42.778
-42.782
-42.769
-42.739
-42.697
-42.643
-42.579
-42.508
-42.431
-42.35
-42.265
-42.178
-42.089
-41.999
-41.909
-41.816
-41.722
-41.625
-41.524
-41.417
-41.302
-41.178
-41.043
-40.894
-40.731
-40.55
-40.35
-40.13
-39.888
-39.621
-39.33
-39.012
-38.667
-38.292
-37.886
-37.45
-36.982
-36.484
-35.954
-35.393
-34.803
-34.185
-33.54
-32.871
-32.18
-31.468
-30.74
-30
-29.252
-28.5
-27.751
-27.01
-26.283
-25.577
-24.9
-24.258
-23.659
-23.108
-22.614
-22.185
-21.827
-21.548
-21.355
-21.258
-21.266
-21.391
-21.642
-22.027
-22.556
-23.238
-24.082
-25.092
-26.273
-27.627
-29.158
-30.87
-32.768
-34.855
-37.13
-39.592
-42.24
-45.074
-48.089
-51.277
-54.624
-58.117
-61.751
-65.527
-69.449
-73.517
-77.72
-82.047
-86.487
-91.026
-95.646
-100.314
-104.981
-109.6
-114.134
-118.553
-122.834
-126.939
-130.812
-134.396
-137.631
-140.477
-142.91
-144.907
-146.444
-147.528
-148.177
-148.433
-148.383
-148.108
-147.683
-147.206
-146.771
-146.464
-146.437
-146.877
-147.883
-149.47
-151.505
-153.688
-155.725
-157.352
-158.208
-157.855
-155.999
-152.604
-148.102
-143.395
-139.432
-136.99
-136.726
-139.221
-144.718
-152.89
-162.474
-171.204
-176.37
-175.332
-165.669
-145.086
-111.821
-64.953
-4.868
66.4
145.589
228.751
311.517
388.815
455.422
506.437
537.784
547.836
537.221
507.046
458.424
390.761
302.708
197.213
82.558
-27.147
-116.516
-177.29
-210.305
-224.675
-230.808
-233.943
-233.806
-226.518
-210.276
-186.901
-160.216
-134.647
-112.704
-95.559
-84.043
-78.116
-77.364
-81.051
-87.796
-96.471
-106.134
-115.406
-123.121
-128.618
-131.524
-131.993
-130.613
-127.845
-124.264
-120.751
-117.93
-116.139
-115.553
-116.039
-117.311
-119.123
-121.144
-122.954
-124.297
-125.051
-125.162
-124.691
-123.692
-122.203
-120.289
-118.032
-115.481
-112.662
-109.599
-106.302
-102.808
-99.182
-95.472
-91.709
-87.911
-84.082
-80.218
-76.321
-72.378
-68.365
-64.263
-60.06
-55.745
-51.315
-46.759
-42.063
-37.207
-32.172
-26.94
-21.497
-15.83
-9.93
-3.789
2.595
9.22
16.08
23.173
30.495
38.041
45.805
53.779
61.952
70.311
78.841
87.524
96.339
105.262
114.266
123.322
132.402
141.474
150.505
159.459
168.302
176.997
185.508
193.796
201.826
209.557
216.954
223.98
230.6
236.778
242.483
247.681
252.345
256.447
259.962
262.869
265.148
266.782
267.758
268.065
267.696
266.648
264.918
262.511
259.432
255.692
251.306
246.289
240.663
234.452
227.683
220.385
212.591
204.336
195.654
186.586
177.171
167.449
157.464
147.258
136.874
126.357
115.75
105.096
94.438
83.817
73.274
62.848
52.576
42.495
32.638
23.039
13.725
4.727
-3.932
-12.228
-20.141
-27.655
-34.754
-41.427
-47.665
-53.464
-58.818
-63.729
-68.199
-72.231
-75.832
-79.013
-81.782
-84.153
-86.14
-87.759
-89.028
-89.963
-90.585
-90.914
-90.97
-90.773
-90.345
-89.708
-88.882
-87.888
-86.747
-85.48
-84.106
-82.646
-81.119
-79.542
-77.932
-76.307
-74.681
-73.068
-71.48
-69.93
-68.426
-66.979
-65.596
-64.284
-63.048
-61.893
-60.822
-59.839
-58.944
-58.14
-57.426
-56.801
-56.266
-55.817
-55.455
-55.175
-54.976
-54.856
-54.811
-54.837
-54.932
-55.092
-55.313
-55.59
-55.921
-56.299
-56.722
-57.186
-57.685
-58.218
-58.78
-59.368
-59.979
-60.611
-61.261
-61.927
-62.607
-63.3
-64.003
-64.716
-65.438
-66.168
-66.905
-67.648
-68.397
-69.152
-69.912
-70.677
-71.445
-72.217
-72.991
-73.768
-74.546
-75.327
-76.108
-76.891
-77.675
-78.46
-79.247
-80.035
-80.824
-81.615
-82.408
-83.202
-83.998
-84.794
-85.592
-86.389
-87.185
-87.978
-88.768
-89.551
-90.325
-91.087
-91.835
-92.567
-93.278
-93.964
-94.623
-95.251
-95.843
-96.396
-96.907
-97.37
-97.781
-98.137
-98.434
-98.669
-98.838
-98.935
-98.957
-98.9
-98.762
-98.539
-98.228
-97.825
-97.329
-96.739
-96.054
-95.275
-94.402
-93.439
-92.387
-91.255
-90.05
-88.782
-87.461
-86.097
-84.701
-83.282
-81.852
-80.42
-78.995
-77.586
-76.202
-74.853
-73.549
-72.304
-71.13
-70.037
-69.032
-68.116
-67.285
-66.543
-65.9
-65.367
-64.965
-64.709
-64.606
-64.671
-64.923
-65.367
-66.004
-66.812
-67.741
-68.755
-69.836
-70.985
-72.221
-73.524
-74.83
-76.064
-77.147
-78.04
-78.755
-79.251
-79.428
-79.261
-78.829
-78.374
-78.23
-78.556
-79.283
-80.31
-81.638
-83.308
-85.301
-87.27
-88.7
-89.305
-89.139
-88.558
-87.793
-86.839
-85.688
-84.693
-84.439
-85.486
-88.217
-92.512
-98.399
-106.151
-115.849
-127.247
-139.649
-151.874
-162.366
-169.662
-171.789
-166.494
-152
-126.441
-88.374
-37.527
25.574
98.721
177.377
257.978
337.779
414.541
487.944
552.817
600.648
623.766
614.725
575.637
514.541
438.433
354.786
264.175
167.393
71.951
-14.15
-79.811
-120.146
-141.192
-149.737
-153.894
-157.452
-157.47
-153.191
-145.174
-135.304
-127.322
-122.586
-120.71
-121.157
-122.872
-124.909
-126.518
-126.708
-124.919
-121.317
-116.38
-110.697
-104.787
-99.033
-93.843
-89.714
-86.943
-85.56
-85.453
-86.375
-88.094
-90.461
-93.297
-96.396
-99.575
-102.637
-105.4
-107.765
-109.655
-111.012
-111.813
-112.027
-111.639
-110.676
-109.185
-107.217
-104.827
-102.054
-98.932
-95.513
-91.856
-88.026
-84.092
-80.097
-76.063
-72.005
-67.928
-63.833
-59.715
-55.555
-51.32
-46.987
-42.538
-37.96
-33.242
-28.371
-23.329
-18.099
-12.669
-7.028
-1.172
4.905
11.205
17.727
24.465
31.41
38.55
45.874
53.369
61.023
68.821
76.746
84.78
92.902
101.091
109.322
117.568
125.8
133.987
142.098
150.1
157.959
165.643
173.115
180.342
187.291
193.927
200.217
206.13
211.632
216.695
221.29
225.391
228.971
232.009
234.484
236.378
237.675
238.364
238.434
237.878
236.692
234.876
232.431
229.363
225.68
221.392
216.515
211.065
205.063
198.532
191.497
183.986
176.029
167.657
158.905
149.807
140.398
130.717
120.801
110.687
100.416
90.024
79.551
69.033
58.51
48.016
37.586
27.256
17.057
7.02
-2.826
-12.453
-21.836
-30.952
-39.78
-48.3
-56.496
-64.352
-71.857
-78.999
-85.77
-92.165
-98.179
-103.81
-109.058
-113.926
-118.417
-122.535
-126.289
-129.687
-132.737
-135.451
-137.841
-139.919
-141.699
-143.194
-144.42
-145.392
-146.124
-146.633
-146.933
-147.039
-146.966
-146.73
-146.343
-145.821
-145.175
-144.419
-143.564
-142.624
-141.608
-140.527
-139.392
-138.21
-136.992
-135.744
-134.473
-133.186
-131.888
-130.584
-129.278
-127.974
-126.675
-125.383
-124.099
-122.824
-121.56
-120.305
-119.06
-117.822
-116.59
-115.363
-114.138
-112.913
-111.686
-110.455
-109.216
-107.966
-106.704
-105.425
-104.127
-102.806
-101.46
-100.084
-98.675
-97.231
-95.749
-94.225
-92.657
-91.042
-89.378
-87.662
-85.893
-84.068
-82.187
-80.248
-78.251
-76.195
-74.082
-71.912
-69.688
-67.41
-65.083
-62.708
-60.289
-57.829
-55.332
-52.803
-50.245
-47.663
-45.063
-42.45
-39.829
-37.207
-34.587
-31.976
-29.38
-26.803
-24.252
-21.729
-19.241
-16.793
-14.388
-12.032
-9.727
-7.479
-5.288
-3.158
-1.091
0.914
2.857
4.74
6.563
8.33
10.044
11.707
13.325
14.903
16.446
17.96
19.452
20.927
22.394
23.86
25.333
26.82
28.328
29.863
31.432
33.041
34.696
36.401
38.161
39.978
41.857
43.801
45.811
47.886
50.027
52.232
54.495
56.813
59.176
61.574
63.995
66.428
68.86
71.277
73.664
76.005
78.289
80.502
82.63
84.656
86.563
88.332
89.948
91.394
92.658
93.724
94.576
95.208
95.615
95.793
95.737
95.434
94.861
94.005
92.86
91.424
89.701
87.701
85.434
82.932
80.242
77.411
74.483
71.493
68.458
65.411
62.398
59.476
56.715
54.165
51.852
49.813
48.067
46.609
45.415
44.422
43.526
42.651
41.718
40.643
39.373
37.838
35.969
33.674
30.804
27.259
23.067
18.377
13.455
8.612
4.152
0.506
-1.707
-2.008
-0.255
3.192
7.611
12.364
16.691
19.644
20.356
17.966
13.201
8.958
6.888
8.012
12.387
17.687
27.419
48.526
85.81
145.517
225.643
318.704
421.574
526.261
625.562
712.316
771.368
795.122
783.125
739.398
676.764
601.73
514.44
416.248
308.829
202.474
112.187
47.055
8.768
-10.558
-21.732
-30.539
-37.501
-38.898
-32.261
-19.054
-2.786
12.638
25.375
35.203
42.035
45.918
46.735
44.754
40.902
35.906
30.053
23.689
17.372
11.684
7.298
4.515
3.113
2.844
3.509
4.733
6.012
6.938
7.118
6.345
4.707
2.324
-0.619
-3.786
-6.825
-9.492
-11.621
-13.147
-14.098
-14.482
-14.323
-13.697
-12.686
-11.351
-9.727
-7.819
-5.629
-3.185
-0.541
2.241
5.115
8.058
11.06
14.115
17.22
20.377
23.601
26.92
30.356
33.924
37.633
41.487
45.498
49.684
54.062
58.651
63.464
68.512
73.803
79.343
85.135
91.176
97.46
103.978
110.721
117.678
124.838
132.19
139.717
147.401
155.224
163.162
171.193
179.287
187.418
195.552
203.658
211.704
219.654
227.473
235.126
242.575
249.784
256.718
263.339
269.612
275.501
280.973
285.996
290.538
294.57
298.066
300.999
303.349
305.097
306.225
306.721
306.574
305.779
304.331
302.231
299.483
296.093
292.071
287.43
282.187
276.361
269.976
263.056
255.63
247.728
239.383
230.629
221.503
212.041
202.283
192.268
182.037
171.63
161.088
150.453
139.765
129.065
118.393
107.787
97.285
86.923
76.734
66.752
57.005
47.523
38.33
29.449
20.902
12.706
4.876
-2.573
-9.632
-16.292
-22.55
-28.402
-33.848
-38.889
-43.531
-47.78
-51.643
-55.13
-58.253
-61.025
-63.46
-65.574
-67.384
-68.907
-70.163
-71.17
-71.95
-72.522
-72.907
-73.125
-73.198
-73.144
-72.984
-72.736
-72.419
-72.05
-71.646
-71.222
-70.794
-70.373
-69.974
-69.606
-69.28
-69.003
-68.785
-68.629
-68.542
-68.528
-68.589
-68.727
-68.944
-69.24
-69.614
-70.063
-70.586
-71.179
-71.837
-72.556
-73.33
-74.152
-75.016
-75.915
-76.841
-77.788
-78.747
-79.71
-80.671
-81.622
-82.555
-83.464
-84.341
-85.18
-85.976
-86.723
-87.417
-88.053
-88.628
-89.139
-89.583
-89.959
-90.264
-90.498
-90.661
-90.753
-90.774
-90.726
-90.611
-90.433
-90.195
-89.902
-89.558
-89.169
-88.74
-88.279
-87.792
-87.286
-86.77
-86.25
-85.735
-85.233
-84.753
-84.302
-83.889
-83.52
-83.204
-82.946
-82.754
-82.633
-82.589
-82.626
-82.75
-82.965
-83.274
-83.681
-84.188
-84.796
-85.506
-86.319
-87.233
-88.246
-89.354
-90.554
-91.84
-93.206
-94.646
-96.152
-97.715
-99.325
-100.974
-102.649
-104.341
-106.038
-107.727
-109.398
-111.037
-112.634
-114.178
-115.657
-117.062
-118.382
-119.607
-120.729
-121.74
-122.632
-123.397
-124.029
-124.522
-124.872
-125.075
-125.131
-125.039
-124.801
-124.424
-123.915
-123.282
-122.534
-121.683
-120.74
-119.717
-118.626
-117.478
-116.282
-115.052
-113.805
-112.555
-111.318
-110.106
-108.932
-107.811
-106.755
-105.776
-104.882
-104.075
-103.365
-102.767
-102.301
-101.997
-101.875
-101.944
-102.214
-102.694
-103.385
-104.285
-105.371
-106.599
-107.931
-109.335
-110.785
-112.262
-113.723
-115.112
-116.364
-117.412
-118.214
-118.749
-118.99
-118.92
-118.539
-117.858
-116.949
-115.934
-114.923
-114.038
-113.392
-113.067
-113.217
-114.056
-115.734
-118.307
-121.667
-125.491
-129.45
-133.277
-136.615
-139.042
-140.221
-140.006
-138.759
-137.392
-136.972
-138.416
-142.429
-149.536
-159.91
-173.186
-188.027
-202.02
-212.077
-215.067
-208.368
-189.551
-156.614
-108.457
-45.23
30.398
113.428
198.73
282.169
362.111
438.23
507.197
562.323
592.868
589.261
550.261
480.618
391.549
294.284
192.906
91.867
-4.193
-90.034
-155.951
-198.54
-221.954
-231.301
-234.223
-234.142
-228.905
-218.224
-202.66
-184.416
-167.311
-153.006
-141.959
-134.208
-129.258
-127.051
-127.339
-129.13
-131.747
-134.741
-137.427
-139.599
-141.077
-141.286
-140.117
-137.894
-134.82
-131.353
-128.156
-125.438
-123.356
-122.219
-122.003
-122.594
-123.886
-125.484
-126.951
-128.091
-128.761
-128.878
-128.487
-127.573
-126.131
-124.254
-122.032
-119.534
-116.813
-113.875
-110.723
-107.396
-103.95
-100.453
-96.963
-93.501
-90.078
-86.697
-83.351
-80.037
-76.737
-73.415
-70.043
-66.597
-63.057
-59.415
-55.652
-51.745
-47.666
-43.389
-38.889
-34.147
-29.147
-23.874
-18.318
-12.473
-6.336
0.088
6.798
13.79
21.059
28.598
36.399
44.448
52.729
61.224
69.911
78.765
87.756
96.853
106.024
115.232
124.442
133.616
142.712
151.692
160.513
169.134
177.513
185.607
193.375
200.774
207.765
214.309
220.367
225.904
230.888
235.287
239.075
242.228
244.723
246.544
247.676
248.11
247.838
246.857
245.169
242.779
239.696
235.933
231.507
226.439
220.753
214.477
207.641
200.278
192.424
184.117
175.396
166.304
156.883
147.178
137.235
127.1
116.821
106.442
96.011
85.574
75.174
64.854
54.657
44.622
34.786
25.184
15.851
6.815
-1.894
-10.252
-18.237
-25.83
-33.015
-39.778
-46.111
-52.005
-57.458
-62.468
-67.037
-71.168
-74.867
-78.145
-81.012
-83.48
-85.566
-87.286
-88.659
-89.705
-90.445
-90.902
-91.099
-91.059
-90.807
-90.365
-89.758
-89.01
-88.144
-87.181
-86.145
-85.056
-83.934
-82.799
-81.669
-80.559
-79.487
-78.465
-77.507
-76.623
-75.824
-75.118
-74.512
-74.013
-73.624
-73.35
-73.192
-73.152
-73.227
-73.418
-73.72
-74.13
-74.644
-75.255
-75.958
-76.745
-77.61
-78.545
-79.541
-80.59
-81.685
-82.816
-83.975
-85.153
-86.343
-87.534
-88.721
-89.894
-91.045
-92.169
-93.257
-94.304
-95.302
-96.247
-97.132
-97.954
-98.707
-99.388
-99.995
-100.524
-100.974
-101.343
-101.631
-101.838
-101.963
-102.009
-101.976
-101.865
-101.68
-101.421
-101.093
-100.697
-100.236
-99.715
-99.135
-98.501
-97.817
-97.085
-96.31
-95.496
-94.647
-93.766
-92.859
-91.93
-90.982
-90.019
-89.045
-88.063
-87.076
-86.086
-85.095
-84.103
-83.112
-82.122
-81.133
-80.145
-79.156
-78.166
-77.171
-76.169
-75.159
-74.136
-73.098
-72.041
-70.961
-69.856
-68.721
-67.554
-66.351
-65.109
-63.825
-62.496
-61.119
-59.69
-58.207
-56.667
-55.069
-53.41
-51.692
-49.913
-48.078
-46.192
-44.259
-42.287
-40.283
-38.256
-36.214
-34.169
-32.128
-30.1
-28.095
-26.122
-24.192
-22.322
-20.526
-18.817
-17.206
-15.708
-14.333
-13.095
-12.001
-11.054
-10.259
-9.622
-9.159
-8.893
-8.845
-9.023
-9.435
-10.083
-10.962
-12.067
-13.375
-14.848
-16.449
-18.142
-19.9
-21.712
-23.558
-25.402
-27.196
-28.877
-30.397
-31.729
-32.855
-33.759
-34.444
-34.934
-35.283
-35.58
-35.919
-36.378
-37.036
-37.973
-39.275
-41.032
-43.371
-46.45
-50.355
-55.059
-60.4
-66.057
-71.65
-76.842
-81.203
-84.195
-85.481
-85.024
-83.195
-80.866
-79.039
-78.482
-79.884
-83.903
-90.711
-99.861
-110.027
-118.81
-123.334
-120.955
-109.279
-85.855
-48.839
2.409
67.205
142.32
222.388
303.411
381.864
454.809
521.852
578.132
615.878
628.923
609.969
559.806
487.964
403.86
318.285
237.519
160.888
89.111
23.841
-32.758
-77.154
-108.419
-128.098
-138.217
-140.837
-137.988
-131.887
-124.767
-118.672
-114.659
-112.602
-111.976
-112.353
-113.21
-113.86
-113.54
-111.349
-106.919
-100.561
-92.799
-84.255
-75.482
-66.881
-58.876
-51.938
-46.322
-42.066
-39.097
-37.205
-36.201
-35.954
-36.307
-37.105
-38.201
-39.422
-40.604
-41.599
-42.29
-42.606
-42.499
-41.932
-40.887
-39.371
-37.413
-35.07
-32.396
-29.43
-26.211
-22.767
-19.142
-15.395
-11.581
-7.757
-3.958
-0.199
3.513
7.18
10.812
14.429
18.059
21.745
25.518
29.404
33.425
37.6
41.953
46.506
51.282
56.299
61.574
67.116
72.935
79.035
85.419
92.081
99.015
106.209
113.651
121.328
129.226
137.327
145.613
154.06
162.645
171.342
180.121
188.951
197.798
206.624
215.394
224.068
232.608
240.974
249.125
257.022
264.624
271.892
278.788
285.274
291.315
296.877
301.928
306.438
310.379
313.728
316.462
318.563
320.016
320.807
320.928
320.372
319.138
317.228
314.644
311.397
307.498
302.961
297.806
292.054
285.729
278.86
271.477
263.611
255.299
246.575
237.48
228.051
218.33
208.358
198.176
187.827
177.354
166.796
156.196
145.594
135.029
124.539
114.161
103.93
93.879
84.04
74.443
65.115
56.08
47.363
38.982
30.956
23.299
16.023
9.14
2.655
-3.425
-9.098
-14.365
-19.227
-23.688
-27.755
-31.435
-34.737
-37.674
-40.258
-42.503
-44.423
-46.034
-47.354
-48.399
-49.188
-49.737
-50.067
-50.195
-50.141
-49.924
-49.561
-49.072
-48.474
-47.784
-47.02
-46.197
-45.331
-44.437
-43.526
-42.613
-41.709
-40.825
-39.97
-39.154
-38.383
-37.665
-37.006
-36.41
-35.882
-35.425
-35.042
-34.735
-34.505
-34.354
-34.281
-34.286
-34.368
-34.528
-34.762
-35.069
-35.447
-35.892
-36.403
-36.975
-37.605
-38.29
-39.025
-39.809
-40.636
-41.502
-42.405
-43.34
-44.303
-45.292
-46.303
-47.333
-48.378
-49.437
-50.507
-51.584
-52.668
-53.757
-54.847
-55.938
-57.028
-58.114
-59.195
-60.27
-61.337
-62.395
-63.443
-64.479
-65.502
-66.511
-67.506
-68.486
-69.449
-70.395
-71.323
-72.231
-73.121
-73.989
-74.837
-75.664
-76.468
-77.249
-78.006
-78.739
-79.446
-80.126
-80.778
-81.399
-81.987
-82.542
-83.06
-83.539
-83.976
-84.37
-84.718
-85.017
-85.265
-85.458
-85.594
-85.669
-85.681
-85.626
-85.503
-85.308
-85.039
-84.694
-84.271
-83.769
-83.185
-82.519
-81.768
-80.933
-80.013
-79.007
-77.917
-76.744
-75.489
-74.155
-72.746
-71.266
-69.721
-68.118
-66.466
-64.774
-63.053
-61.312
-59.564
-57.82
-56.091
-54.389
-52.723
-51.105
-49.546
-48.06
-46.66
-45.36
-44.173
-43.108
-42.178
-41.392
-40.762
-40.288
-39.975
-39.828
-39.855
-40.075
-40.506
-41.154
-42.025
-43.119
-44.428
-45.94
-47.636
-49.479
-51.43
-53.454
-55.521
-57.613
-59.713
-61.787
-63.792
-65.669
-67.361
-68.837
-70.074
-71.048
-71.766
-72.252
-72.56
-72.79
-73.024
-73.326
-73.769
-74.416
-75.343
-76.655
-78.43
-80.774
-83.855
-87.725
-92.349
-97.57
-102.973
-108.102
-112.576
-115.893
-117.513
-117.166
-114.792
-110.795
-106.263
-102.274
-99.668
-99.239
-101.534
-106.682
-114.349
-123.124
-130.309
-132.981
-128.429
-114.021
-87.488
-46.993
8.562
77.488
155.307
237.384
319.644
401.025
482.254
559.964
626.916
671.631
681.831
653.061
587.578
493.338
382.907
266.515
154.395
57.89
-16.813
-66.647
-94.246
-109.597
-119.452
-127.02
-132.484
-131.668
-123.98
-112.311
-99.891
-90.383
-85.067
-83.118
-83.687
-85.829
-88.532
-90.85
-91.727
-90.561
-87.487
-82.995
-77.683
-72.063
-66.549
-61.596
-57.703
-55.157
-53.98
-54.046
-55.107
-56.941
-59.394
-62.291
-65.435
-68.661
-71.788
-74.649
-77.153
-79.231
-80.83
-81.932
-82.509
-82.547
-82.076
-81.138
-79.783
-78.062
-76.011
-73.661
-71.059
-68.257
-65.315
-62.296
-59.238
-56.158
-53.069
-49.969
-46.855
-43.717
-40.53
-37.258
-33.874
-30.353
-26.675
-22.827
-18.788
-14.534
-10.045
-5.302
-0.29
5.001
10.581
16.458
22.632
29.104
35.866
42.91
50.225
57.802
65.628
73.689
81.968
90.446
99.101
107.911
116.849
125.885
134.988
144.123
153.256
162.349
171.364
180.263
189.006
197.553
205.864
213.901
221.624
228.994
235.974
242.527
248.62
254.218
259.292
263.811
267.749
271.084
273.795
275.863
277.275
278.019
278.086
277.473
276.177
274.202
271.553
268.238
264.269
259.664
254.441
248.622
242.234
235.303
227.861
219.94
211.574
202.801
193.658
184.184
174.418
164.401
154.175
143.78
133.257
122.648
111.993
101.332
90.703
80.144
69.692
59.38
49.243
39.311
29.614
20.18
11.032
2.195
-6.312
-14.469
-22.262
-29.676
-36.701
-43.329
-49.554
-55.372
-60.781
-65.782
-70.379
-74.575
-78.378
-81.794
-84.833
-87.506
-89.825
-91.803
-93.455
-94.794
-95.838
-96.602
-97.103
-97.359
-97.388
-97.206
-96.833
-96.286
-95.582
-94.74
-93.777
-92.709
-91.552
-90.324
-89.038
-87.71
-86.352
-84.978
-83.599
-82.226
-80.871
-79.541
-78.245
-76.992
-75.788
-74.639
-73.552
-72.53
-71.577
-70.698
-69.895
-69.171
-68.526
-67.962
-67.479
-67.076
-66.755
-66.512
-66.346
-66.256
-66.238
-66.289
-66.406
-66.586
-66.823
-67.115
-67.458
-67.846
-68.276
-68.743
-69.243
-69.771
-70.325
-70.898
-71.487
-72.088
-72.696
-73.309
-73.921
-74.529
-75.13
-75.72
-76.296
-76.855
-77.394
-77.91
-78.401
-78.865
-79.301
-79.706
-80.08
-80.422
-80.732
-81.01
-81.256
-81.471
-81.655
-81.808
-81.932
-82.028
-82.096
-82.138
-82.155
-82.148
-82.119
-82.07
-82.003
-81.919
-81.82
-81.708
-81.583
-81.448
-81.305
-81.152
-80.992
-80.825
-80.651
-80.471
-80.285
-80.091
-79.891
-79.681
-79.461
-79.229
-78.984
-78.723
-78.442
-78.141
-77.815
-77.464
-77.086
-76.677
-76.235
-75.759
-75.248
-74.699
-74.111
-73.483
-72.813
-72.101
-71.346
-70.549
-69.711
-68.833
-67.92
-66.976
-66.009
-65.026
-64.032
-63.037
-62.05
-61.078
-60.129
-59.211
-58.33
-57.492
-56.708
-55.99
-55.347
-54.788
-54.322
-53.956
-53.699
-53.56
-53.542
-53.643
-53.864
-54.211
-54.696
-55.343
-56.168
-57.174
-58.364
-59.738
-61.289
-63.011
-64.877
-66.844
-68.866
-70.906
-72.934
-74.939
-76.889
-78.738
-80.426
-81.88
-83.051
-83.92
-84.467
-84.669
-84.536
-84.086
-83.372
-82.518
-81.628
-80.792
-80.117
-79.673
-79.54
-79.862
-80.817
-82.532
-85.048
-88.236
-91.803
-95.458
-98.914
-101.795
-103.632
-103.977
-102.625
-99.874
-96.528
-93.531
-91.687
-91.661
-94.031
-99.128
-106.833
-116.039
-124.512
-129.532
-128.489
-118.816
-98.018
-64.253
-16.125
45.533
116.989
195.309
277.895
362.907
450.361
534.538
605.159
652.842
668.413
652.04
612.127
555.328
487.108
407.549
314.22
211.918
112.085
28.425
-29.058
-60.26
-74.567
-82.353
-89.784
-97.355
-100.824
-97.753
-88.962
-77.051
-65.597
-56.197
-48.836
-43.624
-40.29
-38.622
-38.829
-40.534
-43.257
-47.03
-51.619
-56.435
-61.169
-65.441
-68.697
-70.889
-72.115
-72.344
-71.916
-71.346
-70.87
-70.726
-71.169
-72.171
-73.646
-75.484
-77.359
-78.918
-79.976
-80.414
-80.17
-79.274
-77.741
-75.596
-72.929
-69.841
-66.4
-62.65
-58.616
-54.317
-49.797
-45.128
-40.367
-35.555
-30.72
-25.875
-21.03
-16.193
-11.365
-6.529
-1.668
3.232
8.184
13.194
18.266
23.413
28.648
33.989
39.451
45.047
50.78
56.661
62.697
68.899
75.286
81.86
88.614
95.535
102.601
109.794
117.098
124.489
131.93
139.398
146.876
154.363
161.883
169.438
177.013
184.581
192.089
199.507
206.829
214.046
221.16
228.171
235.069
241.873
248.627
255.334
261.964
268.442
274.637
280.453
285.831
290.721
295.099
298.926
302.132
304.666
306.483
307.532
307.765
307.098
305.407
302.633
298.773
293.883
288.092
281.496
274.151
266.121
257.457
248.219
238.488
228.321
217.753
206.845
195.666
184.32
172.958
161.674
150.519
139.505
128.594
117.772
107.056
96.451
85.964
75.606
65.387
55.338
45.516
35.955
26.675
17.676
8.934
0.445
-7.77
-15.683
-23.249
-30.431
-37.213
-43.568
-49.47
-54.904
-59.862
-64.352
-68.397
-72.014
-75.214
-78.005
-80.392
-82.385
-84.003
-85.262
-86.185
-86.794
-87.108
-87.155
-86.96
-86.551
-85.948
-85.173
-84.24
-83.168
-81.977
-80.684
-79.307
-77.865
-76.374
-74.852
-73.317
-71.784
-70.268
-68.78
-67.331
-65.93
-64.587
-63.307
-62.097
-60.962
-59.905
-58.93
-58.039
-57.234
-56.516
-55.885
-55.34
-54.882
-54.508
-54.216
-54.004
-53.868
-53.805
-53.813
-53.887
-54.022
-54.216
-54.463
-54.759
-55.099
-55.478
-55.891
-56.332
-56.798
-57.282
-57.782
-58.293
-58.813
-59.337
-59.863
-60.389
-60.914
-61.434
-61.949
-62.457
-62.957
-63.448
-63.931
-64.403
-64.866
-65.319
-65.763
-66.197
-66.621
-67.038
-67.446
-67.848
-68.243
-68.635
-69.023
-69.412
-69.801
-70.193
-70.589
-70.993
-71.405
-71.827
-72.26
-72.706
-73.165
-73.639
-74.128
-74.633
-75.153
-75.687
-76.236
-76.798
-77.37
-77.951
-78.538
-79.126
-79.714
-80.297
-80.871
-81.433
-81.977
-82.499
-82.994
-83.455
-83.878
-84.256
-84.582
-84.851
-85.055
-85.19
-85.249
-85.227
-85.117
-84.916
-84.617
-84.218
-83.715
-83.102
-82.379
-81.541
-80.59
-79.524
-78.344
-77.052
-75.653
-74.154
-72.562
-70.885
-69.134
-67.319
-65.452
-63.544
-61.608
-59.655
-57.696
-55.742
-53.808
-51.91
-50.063
-48.284
-46.587
-44.988
-43.501
-42.141
-40.922
-39.848
-38.925
-38.163
-37.576
-37.185
-37.012
-37.068
-37.36
-37.893
-38.661
-39.657
-40.86
-42.231
-43.727
-45.311
-46.948
-48.619
-50.303
-51.961
-53.549
-55.008
-56.285
-57.356
-58.197
-58.785
-59.127
-59.252
-59.222
-59.145
-59.115
-59.212
-59.521
-60.124
-61.105
-62.575
-64.619
-67.341
-70.894
-75.32
-80.546
-86.401
-92.497
-98.396
-103.72
-107.966
-110.533
-111.116
-109.73
-106.744
-103.115
-99.796
-97.427
-96.705
-98.269
-102.206
-107.901
-113.847
-117.516
-116.21
-107.404
-88.632
-57.848
-13.51
43.69
111.554
188.11
269.568
353.599
437.581
513.285
573.929
612.554
622.581
606.58
568.039
510.899
442.14
363.996
279.237
192.746
108.035
30.548
-34.806
-85.749
-121.409
-142.579
-151.243
-149.691
-140.543
-127.003
-112.3
-99.125
-89.076
-82.64
-79.6
-79.37
-81.184
-83.998
-86.577
-87.759
-86.973
-84.317
-80.214
-75.227
-69.874
-64.591
-59.867
-56.213
-53.891
-52.905
-53.125
-54.297
-56.195
-58.67
-61.544
-64.618
-67.727
-70.69
-73.347
-75.616
-77.431
-78.744
-79.535
-79.78
-79.47
-78.642
-77.344
-75.628
-73.545
-71.131
-68.418
-65.45
-62.28
-58.966
-55.569
-52.122
-48.646
-45.151
-41.639
-38.11
-34.555
-30.95
-27.263
-23.467
-19.542
-15.471
-11.241
-6.834
-2.229
2.592
7.644
12.941
18.49
24.301
30.377
36.721
43.33
50.197
57.312
64.666
72.246
80.04
88.034
96.209
104.545
113.022
121.616
130.3
139.044
147.819
156.59
165.323
173.984
182.535
190.94
199.16
207.157
214.894
222.333
229.437
236.168
242.492
248.374
253.782
258.684
263.051
266.856
270.075
272.686
274.671
276.014
276.704
276.731
276.09
274.78
272.803
270.163
266.871
262.937
258.378
253.213
247.464
241.157
234.32
226.983
219.18
210.945
202.317
193.333
184.033
174.458
164.65
154.65
144.501
134.244
123.924
113.58
103.254
92.986
82.815
72.779
62.911
53.247
43.817
34.651
25.775
17.213
8.988
1.117
-6.381
-13.495
-20.213
-26.527
-32.431
-37.922
-43
-47.667
-51.928
-55.789
-59.259
-62.348
-65.069
-67.434
-69.459
-71.161
-72.555
-73.661
-74.498
-75.085
-75.442
-75.59
-75.549
-75.34
-74.983
-74.498
-73.904
-73.22
-72.465
-71.655
-70.806
-69.935
-69.056
-68.183
-67.328
-66.501
-65.714
-64.974
-64.29
-63.668
-63.113
-62.629
-62.219
-61.886
-61.63
-61.452
-61.351
-61.327
-61.378
-61.501
-61.693
-61.951
-62.27
-62.648
-63.078
-63.557
-64.079
-64.64
-65.234
-65.857
-66.504
-67.171
-67.851
-68.541
-69.237
-69.933
-70.627
-71.313
-71.99
-72.654
-73.302
-73.932
-74.542
-75.13
-75.696
-76.238
-76.756
-77.25
-77.72
-78.166
-78.589
-78.989
-79.368
-79.728
-80.068
-80.392
-80.7
-80.995
-81.277
-81.55
-81.814
-82.071
-82.322
-82.57
-82.816
-83.06
-83.306
-83.553
-83.804
-84.059
-84.319
-84.585
-84.859
-85.141
-85.43
-85.728
-86.032
-86.344
-86.661
-86.983
-87.307
-87.631
-87.951
-88.266
-88.572
-88.866
-89.143
-89.399
-89.63
-89.831
-89.998
-90.126
-90.209
-90.243
-90.223
-90.145
-90.004
-89.796
-89.515
-89.158
-88.72
-88.2
-87.593
-86.895
-86.104
-85.219
-84.237
-83.157
-81.981
-80.708
-79.34
-77.885
-76.346
-74.732
-73.051
-71.31
-69.519
-67.688
-65.827
-63.943
-62.046
-60.143
-58.246
-56.369
-54.526
-52.728
-50.987
-49.314
-47.721
-46.222
-44.825
-43.532
-42.347
-41.278
-40.34
-39.559
-38.954
-38.534
-38.304
-38.266
-38.419
-38.757
-39.263
-39.897
-40.624
-41.412
-42.239
-43.099
-43.972
-44.82
-45.595
-46.232
-46.694
-46.968
-47.038
-46.893
-46.545
-46.022
-45.393
-44.762
-44.21
-43.806
-43.621
-43.723
-44.214
-45.192
-46.785
-49.16
-52.395
-56.454
-61.181
-66.242
-71.231
-75.788
-79.454
-81.664
-82.093
-80.706
-77.919
-74.691
-72.048
-70.802
-71.687
-75.377
-82.146
-91.661
-102.536
-112.224
-117.856
-116.774
-106.386
-84.118
-47.842
3.675
68.913
143.588
223.302
304.296
385.527
467.312
545.814
612.951
656.615
664.857
633.974
569.335
483.747
391.491
301.755
218.011
139.288
65.236
-1.842
-58.61
-101.799
-130.773
-147.34
-153.982
-153.221
-147.364
-138.52
-128.642
-119.171
-110.616
-102.914
-95.777
-89.085
-82.971
-77.358
-72.138
-67.497
-63.851
-61.635
-61.175
-62.356
-64.551
-67.325
-70.358
-73.12
-75.235
-76.493
-76.745
-76.231
-75.538
-75.006
-74.823
-75.229
-76.213
-77.649
-79.456
-81.36
-82.993
-84.176
-84.801
-84.784
-84.184
-83.06
-81.441
-79.422
-77.092
-74.491
-71.668
-68.655
-65.471
-62.17
-58.793
-55.362
-51.902
-48.421
-44.913
-41.377
-37.793
-34.128
-30.36
-26.468
-22.437
-18.26
-13.924
-9.414
-4.718
0.179
5.289
10.622
16.191
22.003
28.061
34.364
40.907
47.68
54.676
61.887
69.302
76.909
84.696
92.645
100.74
108.961
117.286
125.689
134.141
142.613
151.073
159.489
167.829
176.057
184.138
192.037
199.718
207.145
214.282
221.093
227.544
233.601
239.231
244.404
249.089
253.258
256.887
259.952
262.432
264.31
265.571
266.202
266.195
265.544
264.248
262.308
259.728
256.516
252.683
248.245
243.219
237.626
231.49
224.838
217.697
210.101
202.081
193.674
184.916
175.846
166.502
156.925
147.154
137.233
127.2
117.098
106.966
96.844
86.771
76.785
66.922
57.216
47.7
38.404
29.358
20.587
12.116
3.965
-3.847
-11.304
-18.392
-25.1
-31.419
-37.344
-42.872
-48.001
-52.733
-57.072
-61.024
-64.595
-67.797
-70.64
-73.137
-75.303
-77.153
-78.703
-79.971
-80.975
-81.735
-82.269
-82.598
-82.741
-82.719
-82.55
-82.254
-81.85
-81.356
-80.79
-80.167
-79.504
-78.817
-78.118
-77.422
-76.74
-76.083
-75.461
-74.884
-74.357
-73.889
-73.485
-73.149
-72.885
-72.695
-72.582
-72.545
-72.587
-72.705
-72.899
-73.167
-73.506
-73.913
-74.386
-74.918
-75.508
-76.149
-76.837
-77.567
-78.334
-79.134
-79.962
-80.812
-81.68
-82.562
-83.451
-84.345
-85.238
-86.127
-87.009
-87.879
-88.735
-89.574
-90.394
-91.193
-91.969
-92.721
-93.447
-94.147
-94.82
-95.466
-96.085
-96.678
-97.246
-97.79
-98.312
-98.813
-99.297
-99.766
-100.221
-100.666
-101.104
-101.537
-101.968
-102.401
-102.838
-103.283
-103.738
-104.208
-104.693
-105.197
-105.722
-106.269
-106.841
-107.437
-108.058
-108.705
-109.378
-110.078
-110.803
-111.552
-112.325
-113.118
-113.929
-114.756
-115.593
-116.435
-117.277
-118.114
-118.939
-119.747
-120.53
-121.28
-121.991
-122.656
-123.266
-123.814
-124.292
-124.691
-125.004
-125.224
-125.343
-125.357
-125.258
-125.042
-124.705
-124.245
-123.659
-122.946
-122.103
-121.13
-120.028
-118.799
-117.444
-115.969
-114.378
-112.68
-110.887
-109.011
-107.066
-105.064
-103.021
-100.952
-98.873
-96.798
-94.739
-92.71
-90.724
-88.799
-86.952
-85.199
-83.553
-82.027
-80.635
-79.392
-78.307
-77.385
-76.628
-76.04
-75.632
-75.42
-75.427
-75.669
-76.147
-76.869
-77.837
-79.047
-80.493
-82.145
-83.952
-85.874
-87.87
-89.912
-91.975
-94.012
-95.959
-97.751
-99.321
-100.625
-101.642
-102.336
-102.681
-102.677
-102.33
-101.702
-100.906
-100.039
-99.201
-98.483
-97.941
-97.703
-97.97
-98.902
-100.58
-102.895
-105.562
-108.36
-111.146
-113.666
-115.535
-116.325
-115.759
-114.192
-112.441
-111.2
-111.094
-112.741
-116.757
-123.846
-133.362
-142.498
-148.228
-148.634
-145.081
-141.113
-136.825
-127.039
-101.068
-49.282
29.371
127.56
231.474
330.383
420.537
500.417
568.654
617.908
637.579
622.365
573.941
502.556
421.259
338.429
257.569
178.028
99.555
25.308
-40.043
-92.059
-129.104
-152.045
-162.61
-163.007
-155.323
-142.364
-127.812
-114.711
-104.68
-98.378
-95.789
-96.657
-100.918
-107.631
-114.826
-120.807
-124.675
-126.139
-125.49
-123.073
-118.829
-113.155
-107.084
-101.473
-96.889
-93.595
-91.452
-90.338
-90.365
-91.431
-93.189
