Name,Aleksandre Beruashvili
Date of Birth,"Dec 20, 1998"
Recorded Date,2024-05-31 14:59:49 +0400
Classification,Sinus Rhythm
Symptoms,
Software Version,1.90
Device,"Watch7,2"
Sample Rate,512 hertz


Lead,Lead I
Unit,µV

250.832
97.922
3.205
-32.732
-26.833
-9.141
1.185
-1.314
-12.975
-23.168
-27.564
-27.928
-27.156
-28.912
-33.558
-38.888
-42.994
-44.124
-41.208
-34.323
-23.95
-10.831
3.955
19.43
34.786
49.244
62.11
72.947
81.553
87.888
92.078
94.283
94.657
93.402
90.763
86.985
82.303
76.95
71.132
65.011
58.75
52.489
46.36
40.531
35.158
30.374
26.312
23.051
20.621
19.034
18.251
18.197
18.784
19.906
21.444
23.317
25.445
27.757
30.189
32.649
35.04
37.267
39.225
40.835
42.049
42.831
43.175
43.096
42.614
41.766
40.6
39.152
37.455
35.54
33.43
31.158
28.767
26.3
23.811
21.343
18.925
16.582
14.329
12.175
10.124
8.173
6.31
4.528
2.823
1.192
-0.364
-1.846
-3.258
-4.607
-5.899
-7.141
-8.336
-9.49
-10.608
-11.692
-12.744
-13.764
-14.75
-15.699
-16.612
-17.489
-18.328
-19.131
-19.894
-20.619
-21.303
-21.944
-22.538
-23.082
-23.57
-23.996
-24.357
-24.645
-24.856
-24.983
-25.022
-24.969
-24.821
-24.576
-24.232
-23.789
-23.251
-22.619
-21.898
-21.09
-20.202
-19.241
-18.213
-17.125
-15.985
-14.801
-13.584
-12.346
-11.102
-9.862
-8.644
-7.461
-6.331
-5.27
-4.293
-3.408
-2.627
-1.963
-1.431
-1.056
-0.856
-0.84
-1.019
-1.401
-1.991
-2.787
-3.77
-4.905
-6.161
-7.511
-8.939
-10.444
-12.012
-13.621
-15.247
-16.853
-18.421
-19.958
-21.455
-22.893
-24.278
-25.636
-27.048
-28.644
-30.517
-32.727
-35.302
-38.254
-41.642
-45.541
-50.016
-55.138
-60.903
-67.309
-74.457
-82.345
-90.811
-99.544
-107.917
-115.26
-121.17
-125.188
-126.821
-126.058
-123.099
-118.544
-113.813
-110.105
-108.201
-109.099
-113.381
-120.564
-129.745
-139.105
-145.46
-146.068
-138.492
-119.882
-88.296
-43.283
14.697
83.568
159.161
237.068
312.502
379.565
432.559
466.622
477.708
464.472
429.247
375.244
305.042
218.516
114.031
-6.062
-131.846
-244.433
-324.91
-363.397
-362.857
-339.261
-309.334
-283.264
-263.584
-245.699
-226.519
-206.284
-186.754
-171.236
-160.647
-153.544
-148.314
-142.751
-135.169
-125.195
-112.846
-98.511
-82.986
-66.97
-51.064
-35.947
-22.199
-10.081
0.346
9.193
16.729
23.171
28.693
33.48
37.723
41.6
45.29
48.955
52.679
56.524
60.532
64.717
69.09
73.637
78.308
83.035
87.755
92.411
96.955
101.347
105.533
109.444
113.011
116.16
118.844
121.034
122.715
123.88
124.531
124.681
124.358
123.603
122.448
120.92
119.043
116.838
114.331
111.552
108.531
105.295
101.871
98.282
94.55
90.697
86.743
82.702
78.591
74.421
70.206
65.964
61.71
57.462
53.236
49.047
44.91
40.84
36.85
32.951
29.154
25.465
21.894
18.448
15.132
11.951
8.908
6.007
3.251
0.64
-1.825
-4.142
-6.313
-8.338
-10.217
-11.953
-13.546
-15
-16.318
-17.503
-18.558
-19.489
-20.301
-20.998
-21.589
-22.078
-22.474
-22.784
-23.016
-23.179
-23.28
-23.328
-23.331
-23.297
-23.235
-23.15
-23.051
-22.944
-22.836
-22.732
-22.638
-22.56
-22.503
-22.472
-22.471
-22.506
-22.58
-22.697
-22.861
-23.074
-23.34
-23.659
-24.034
-24.466
-24.955
-25.501
-26.104
-26.762
-27.473
-28.235
-29.044
-29.897
-30.79
-31.717
-32.675
-33.659
-34.663
-35.682
-36.712
-37.749
-38.787
-39.824
-40.853
-41.873
-42.879
-43.867
-44.836
-45.782
-46.704
-47.599
-48.466
-49.305
-50.114
-50.895
-51.647
-52.371
-53.068
-53.741
-54.391
-55.021
-55.634
-56.234
-56.826
-57.415
-58.004
-58.6
-59.209
-59.835
-60.484
-61.162
-61.874
-62.625
-63.42
-64.265
-65.163
-66.119
-67.137
-68.218
-69.367
-70.583
-71.869
-73.223
-74.646
-76.136
-77.691
-79.308
-80.985
-82.717
-84.5
-86.329
-88.197
-90.099
-92.026
-93.971
-95.924
-97.877
-99.821
-101.745
-103.641
-105.498
-107.306
-109.054
-110.733
-112.333
-113.845
-115.257
-116.562
-117.752
-118.82
-119.758
-120.564
-121.233
-121.764
-122.157
-122.414
-122.537
-122.531
-122.4
-122.15
-121.788
-121.32
-120.753
-120.097
-119.361
-118.557
-117.699
-116.801
-115.878
-114.946
-114.023
-113.125
-112.27
-111.465
-110.725
-110.063
-109.494
-109.045
-108.736
-108.583
-108.6
-108.8
-109.191
-109.774
-110.538
-111.45
-112.481
-113.605
-114.8
-116.062
-117.381
-118.735
-120.1
-121.442
-122.731
-123.966
-125.136
-126.225
-127.234
-128.191
-129.168
-130.295
-131.688
-133.431
-135.577
-138.165
-141.26
-144.948
-149.309
-154.426
-160.332
-167.049
-174.677
-183.218
-192.53
-202.316
-211.977
-220.841
-228.424
-234.199
-237.614
-238.58
-237.248
-234.136
-230.543
-227.617
-226.126
-227.076
-231.092
-237.719
-246.033
-254.246
-259.281
-258.458
-249.344
-229.015
-195.431
-148.077
-87.441
-15.651
63.315
145.156
224.91
296.672
354.756
394.12
410.731
402.001
368.501
313.572
241.151
155.192
56.738
-54.806
-175.235
-294.036
-394.68
-460.747
-486.367
-478.156
-450.279
-416.732
-383.418
-346.815
-305.122
-262.727
-227.672
-212.896
-221.338
-243.165
-268.147
-284.159
-286.528
-280.967
-270.987
-258.828
-245.405
-228.425
-207.915
-186.105
-164.498
-144.28
-126.169
-110.223
-96.535
-85.331
-76.368
-69.004
-62.875
-57.841
-53.815
-50.827
-48.773
-47.389
-46.548
-46.196
-46.226
-46.514
-46.863
-47.052
-46.936
-46.401
-45.374
-43.807
-41.648
-38.871
-35.489
-31.532
-27.062
-22.164
-16.899
-11.339
-5.571
0.319
6.214
12.015
17.659
23.082
28.244
33.118
37.675
41.902
45.81
49.406
52.707
55.738
58.511
61.047
63.376
65.533
67.561
69.497
71.364
73.178
74.956
76.705
78.437
80.155
81.852
83.524
85.173
86.799
88.405
89.995
91.565
93.116
94.643
96.146
97.626
99.088
100.531
101.961
103.381
104.796
106.214
107.642
109.084
110.544
112.024
113.529
115.061
116.625
118.222
119.854
121.524
123.236
124.99
126.791
128.638
130.532
132.474
134.465
136.502
138.587
140.717
142.89
145.106
147.362
149.655
151.983
154.341
156.726
159.134
161.561
164.001
166.449
168.901
171.351
173.792
176.218
178.624
181.001
183.344
185.645
187.898
190.095
192.231
194.299
196.293
198.207
200.036
201.775
203.42
204.967
206.412
207.75
208.981
210.101
211.108
212.001
212.778
213.438
213.982
214.408
214.718
214.912
214.99
214.954
214.806
214.55
214.187
213.722
213.159
212.503
211.758
210.93
210.025
209.047
208.001
206.894
205.73
204.514
203.251
201.947
200.605
199.23
197.826
196.398
194.949
193.482
192.002
190.511
189.014
187.512
186.01
184.511
183.018
181.534
180.061
178.602
177.159
175.733
174.324
172.934
171.563
170.211
168.876
167.56
166.26
164.978
163.713
162.465
161.232
160.015
158.814
157.628
156.457
155.302
154.163
153.04
151.934
150.847
149.78
148.732
147.705
146.698
145.711
144.745
143.799
142.872
141.963
141.07
140.194
139.335
138.49
137.66
136.842
136.036
135.238
134.447
133.657
132.861
132.055
131.232
130.387
129.512
128.599
127.644
126.641
125.586
124.473
123.295
122.042
120.707
119.278
117.748
116.108
114.348
112.461
110.441
108.291
106.008
103.591
101.033
98.313
95.423
92.357
89.109
85.683
82.084
78.328
74.445
70.482
66.483
62.486
58.521
54.602
50.756
47.013
43.412
40.003
36.814
33.858
31.154
28.716
26.519
24.508
22.583
20.599
18.445
16.047
13.321
10.192
6.567
2.339
-2.588
-8.266
-14.754
-22.154
-30.457
-39.539
-49.107
-58.593
-67.401
-75.059
-81.026
-84.729
-86.013
-84.977
-82.067
-78.479
-75.202
-72.832
-72.28
-74.191
-78.232
-83.646
-88.865
-90.932
-87.263
-75.677
-53.243
-17.739
31.49
94.329
168.902
250.945
335.927
418.984
493.386
552.515
591.032
603.788
589.66
552.424
495.212
421.783
332.781
223.745
97.389
-37.74
-165.12
-259.278
-306.497
-303.103
-256.723
-191.636
-127.789
-81.607
-64.239
-70.678
-91.607
-114.843
-128.539
-129.928
-121.453
-108.498
-95.553
-83.456
-71.128
-56.601
-39.427
-20.741
-1.726
16.392
32.848
47.515
60.221
70.79
79.281
85.747
90.236
92.854
93.683
92.776
90.287
86.444
81.468
75.611
69.119
62.196
55.081
48.038
41.288
35.029
29.407
24.496
20.363
17.062
14.619
13.037
12.275
12.244
12.856
14.019
15.637
17.618
19.848
22.183
24.511
26.742
28.814
30.696
32.357
33.768
34.919
35.816
36.477
36.931
37.199
37.295
37.243
37.071
36.816
36.526
36.234
35.957
35.71
35.495
35.314
35.17
35.055
34.952
34.851
34.739
34.61
34.465
34.298
34.103
33.872
33.598
33.278
32.91
32.496
32.034
31.527
30.977
30.389
29.772
29.129
28.466
27.786
27.092
26.386
25.674
24.958
24.24
23.524
22.814
22.116
21.434
20.772
20.136
19.529
18.957
18.422
17.927
17.476
17.07
16.71
16.398
16.134
15.918
15.749
15.625
15.544
15.503
15.501
15.534
15.598
15.69
15.804
15.937
16.086
16.244
16.409
16.575
16.738
16.894
17.038
17.167
17.275
17.359
17.414
17.436
17.421
17.366
17.268
17.123
16.93
16.685
16.388
16.038
15.632
15.171
14.655
14.083
13.456
12.775
12.041
11.254
10.418
9.533
8.6
7.623
6.603
5.542
4.442
3.306
2.135
0.932
-0.301
-1.563
-2.852
-4.167
-5.508
-6.873
-8.263
-9.677
-11.116
-12.582
-14.073
-15.59
-17.135
-18.707
-20.308
-21.938
-23.599
-25.29
-27.015
-28.772
-30.565
-32.392
-34.255
-36.154
-38.089
-40.058
-42.062
-44.099
-46.169
-48.27
-50.401
-52.562
-54.75
-56.964
-59.2
-61.454
-63.721
-65.997
-68.273
-70.544
-72.8
-75.033
-77.236
-79.402
-81.522
-83.592
-85.603
-87.549
-89.425
-91.224
-92.936
-94.553
-96.063
-97.454
-98.718
-99.848
-100.837
-101.683
-102.382
-102.933
-103.339
-103.602
-103.721
-103.692
-103.504
-103.149
-102.631
-101.958
-101.147
-100.224
-99.214
-98.143
-97.044
-95.946
-94.863
-93.804
-92.757
-91.703
-90.635
-89.559
-88.496
-87.475
-86.508
-85.595
-84.724
-83.86
-82.972
-82.022
-80.938
-79.66
-78.146
-76.376
-74.384
-72.238
-69.988
-67.666
-65.282
-62.826
-60.307
-57.757
-55.224
-52.784
-50.506
-48.474
-46.835
-45.749
-45.375
-45.845
-47.199
-49.408
-52.445
-56.294
-60.955
-66.457
-72.808
-79.978
-87.92
-96.543
-105.775
-115.569
-125.715
-135.822
-145.365
-153.704
-160.3
-164.839
-167.085
-166.742
-163.814
-158.704
-152.094
-145.13
-139.024
-134.544
-131.97
-131.309
-131.961
-132.546
-131.415
-126.399
-114.59
-93.406
-61.687
-18.9
33.161
89.746
148.236
206.51
262.981
319.146
369.765
404.399
413.455
386.291
324.169
239.479
144.349
53.169
-27.104
-97.857
-157.708
-206.082
-241.758
-260.692
-262.498
-250.131
-227.113
-198.607
-169.791
-143.678
-122.474
-108.175
-101.547
-102.07
-108.287
-117.443
-126.639
-134.258
-139.305
-140.984
-138.932
-133.184
-124.458
-114.338
-104.299
-95.125
-87.212
-80.72
-75.793
-72.589
-70.931
-70.284
-70.166
-70.288
-70.524
-70.866
-71.207
-71.389
-71.336
-71.043
-70.546
-69.869
-68.991
-67.875
-66.524
-64.964
-63.236
-61.39
-59.449
-57.445
-55.42
-53.424
-51.519
-49.75
-48.149
-46.741
-45.543
-44.564
-43.812
-43.284
-42.964
-42.841
-42.904
-43.139
-43.539
-44.092
-44.784
-45.602
-46.532
-47.562
-48.681
-49.877
-51.14
-52.459
-53.828
-55.239
-56.687
-58.163
-59.66
-61.167
-62.676
-64.177
-65.659
-67.112
-68.525
-69.889
-71.194
-72.433
-73.597
-74.679
-75.673
-76.571
-77.367
-78.057
-78.636
-79.098
-79.44
-79.658
-79.751
-79.718
-79.556
-79.265
-78.845
-78.297
-77.622
-76.822
-75.9
-74.857
-73.698
-72.426
-71.046
-69.563
-67.983
-66.312
-64.556
-62.723
-60.819
-58.853
-56.831
-54.762
-52.654
-50.514
-48.35
-46.17
-43.984
-41.798
-39.62
-37.459
-35.323
-33.219
-31.155
-29.136
-27.17
-25.264
-23.421
-21.65
-19.953
-18.336
-16.803
-15.358
-14.003
-12.743
-11.578
-10.51
-9.541
-8.672
-7.902
-7.232
-6.66
-6.186
-5.808
-5.524
-5.334
-5.233
-5.22
-5.292
-5.444
-5.674
-5.977
-6.35
-6.788
-7.287
-7.843
-8.451
-9.107
-9.807
-10.547
-11.322
-12.13
-12.965
-13.825
-14.707
-15.607
-16.524
-17.453
-18.393
-19.343
-20.3
-21.263
-22.23
-23.201
-24.174
-25.148
-26.122
-27.096
-28.068
-29.037
-30.004
-30.967
-31.927
-32.882
-33.833
-34.78
-35.722
-36.66
-37.593
-38.521
-39.443
-40.36
-41.27
-42.172
-43.065
-43.946
-44.813
-45.664
-46.496
-47.305
-48.088
-48.841
-49.56
-50.24
-50.876
-51.464
-51.999
-52.475
-52.887
-53.23
-53.499
-53.691
-53.798
-53.817
-53.742
-53.569
-53.295
-52.914
-52.422
-51.815
-51.088
-50.241
-49.27
-48.173
-46.95
-45.601
-44.128
-42.534
-40.825
-39.005
-37.079
-35.054
-32.938
-30.738
-28.46
-26.111
-23.699
-21.232
-18.721
-16.179
-13.616
-11.047
-8.484
-5.941
-3.434
-0.975
1.431
3.775
6.045
8.229
10.3
12.244
14.049
15.703
17.197
18.528
19.694
20.718
21.635
22.477
23.271
24.034
24.768
25.488
26.217
26.98
27.808
28.711
29.679
30.719
31.84
33.029
34.242
35.374
36.286
36.869
37.049
36.785
36.027
34.696
32.711
29.991
26.48
22.205
17.148
11.233
4.5
-2.892
-10.595
-17.982
-24.474
-29.677
-33.142
-34.537
-33.866
-31.256
-27.333
-23.228
-19.851
-18.006
-18.428
-21.109
-25.291
-30.003
-33.544
-33.425
-27.221
-12.243
14.113
51.574
97.332
149.279
205.684
267.854
339.326
417.444
492.441
548.752
569.897
548.629
490.172
409.687
323.234
240.761
165.387
94.217
25.993
-35.841
-86.964
-123.25
-143.079
-148.368
-142.433
-128.415
-109.78
-90.456
-73.168
-59.599
-50.677
-45.99
-44.531
-45.46
-47.386
-48.451
-47.609
-44.356
-38.593
-30.955
-22.107
-12.539
-2.959
5.895
13.623
20.004
25.012
28.872
31.761
33.819
35.244
36.204
36.833
37.264
37.613
38.001
38.538
39.307
40.362
41.736
43.445
45.498
47.876
50.528
53.406
56.456
59.635
62.915
66.253
69.591
72.868
76.017
78.986
81.745
84.27
86.544
88.559
90.311
91.812
93.087
94.155
95.027
95.715
96.225
96.569
96.765
96.827
96.772
96.611
96.356
96.017
95.606
95.131
94.599
94.015
93.381
92.704
91.992
91.252
90.495
89.729
88.961
88.201
87.458
86.738
86.046
85.389
84.769
84.19
83.655
83.167
82.728
82.338
81.999
81.711
81.475
81.289
81.152
81.063
81.02
81.021
81.065
81.15
81.274
81.436
81.633
81.865
82.128
82.421
82.741
83.085
83.45
83.833
84.231
84.639
85.056
85.478
85.903
86.328
86.751
87.17
87.584
87.99
88.387
88.775
89.151
89.515
89.866
90.204
90.528
90.838
91.133
91.413
91.676
91.921
92.147
92.352
92.534
92.691
92.821
92.923
92.994
93.033
93.038
93.009
92.943
92.84
92.699
92.518
92.296
92.033
91.728
91.381
90.99
90.554
90.075
89.551
88.98
88.363
87.699
86.985
86.222
85.409
84.543
83.625
82.654
81.63
80.553
79.423
78.241
77.007
75.723
74.388
73.004
71.571
70.09
68.561
66.984
65.361
63.692
61.977
60.217
58.413
56.564
54.671
52.734
50.755
48.734
46.672
44.57
42.431
40.258
38.053
35.821
33.566
31.292
29.006
26.712
24.416
22.124
19.842
17.577
15.334
13.122
10.948
8.819
6.744
4.73
2.787
0.923
-0.854
-2.534
-4.111
-5.575
-6.917
-8.13
-9.205
-10.134
-10.909
-11.524
-11.974
-12.252
-12.357
-12.286
-12.039
-11.618
-11.026
-10.271
-9.358
-8.295
-7.092
-5.76
-4.308
-2.75
-1.099
0.634
2.433
4.28
6.157
8.045
9.924
11.773
13.571
15.298
16.934
18.458
19.849
21.089
22.158
23.036
23.702
24.129
24.296
24.194
23.817
23.165
22.248
21.076
19.671
18.064
16.287
14.369
12.34
10.225
8.049
5.843
3.647
1.506
-0.541
-2.474
-4.286
-5.981
-7.576
-9.089
-10.564
-12.08
-13.707
-15.513
-17.551
-19.863
-22.487
-25.472
-28.857
-32.656
-36.872
-41.482
-46.46
-51.766
-57.336
-63.067
-68.821
-74.461
-79.769
-84.423
-88.001
-89.942
-89.687
-86.824
-81.084
-72.228
-60.319
-45.832
-29.573
-12.86
2.883
16.688
28.1
36.981
43.801
49.859
57.031
67.987
85.801
112.865
150.371
198.64
256.817
322.338
391.593
460.017
521.632
570.32
601.152
609.896
595.116
559.412
506.128
437.749
354.104
253.705
139.371
21.699
-80.069
-148.496
-177.398
-170.811
-144.146
-112.147
-78.59
-46.39
-17.15
7.208
17.89
12.903
-1.348
-18.391
-29.006
-29.607
-24.707
-17.541
-11.014
-6.305
-1.224
4.84
11.198
17.252
21.958
24.971
26.653
27.241
26.92
25.913
24.415
22.62
20.71
18.799
16.968
15.321
13.944
12.893
12.196
11.855
11.875
12.243
12.919
13.839
14.937
16.148
17.422
18.711
19.957
21.097
22.063
22.786
23.221
23.338
23.115
22.539
21.605
20.313
18.683
16.741
14.51
12.011
9.261
6.276
3.082
-0.296
-3.829
-7.49
-11.253
-15.093
-18.985
-22.903
-26.822
-30.721
-34.578
-38.374
-42.086
-45.691
-49.167
-52.49
-55.639
-58.594
-61.336
-63.845
-66.107
-68.108
-69.836
-71.282
-72.438
-73.298
-73.858
-74.116
-74.072
-73.727
-73.084
-72.148
-70.927
-69.428
-67.661
-65.638
-63.37
-60.871
-58.156
-55.241
-52.142
-48.877
-45.464
-41.923
-38.274
-34.537
-30.734
-26.886
-23.013
-19.137
-15.279
-11.46
-7.7
-4.018
-0.433
3.037
6.376
9.568
12.597
15.452
18.118
20.586
22.844
24.883
26.695
28.273
29.612
30.705
31.55
32.142
32.48
32.563
32.391
31.967
31.292
30.371
29.208
27.81
26.185
24.339
22.283
20.027
17.582
14.959
12.172
9.233
6.156
2.954
-0.358
-3.768
-7.26
-10.822
-14.44
-18.1
-21.79
-25.495
-29.204
-32.903
-36.58
-40.223
-43.82
-47.359
-50.831
-54.225
-57.532
-60.744
-63.851
-66.849
-69.729
-72.489
-75.122
-77.628
-80.003
-82.247
-84.36
-86.344
-88.201
-89.934
-91.547
-93.045
-94.431
-95.712
-96.893
-97.979
-98.977
-99.893
-100.735
-101.508
-102.22
-102.879
-103.492
-104.066
-104.608
-105.127
-105.628
-106.117
-106.601
-107.086
-107.578
-108.081
-108.599
-109.135
-109.693
-110.275
-110.88
-111.508
-112.158
-112.825
-113.507
-114.2
-114.898
-115.596
-116.287
-116.966
-117.625
-118.258
-118.858
-119.416
-119.923
-120.371
-120.751
-121.055
-121.274
-121.398
-121.421
-121.333
-121.128
-120.799
-120.34
-119.745
-119.007
-118.122
-117.087
-115.9
-114.557
-113.059
-111.407
-109.606
-107.662
-105.585
-103.384
-101.067
-98.648
-96.138
-93.55
-90.896
-88.184
-85.425
-82.632
-79.816
-76.995
-74.184
-71.398
-68.653
-65.968
-63.358
-60.839
-58.421
-56.11
-53.916
-51.852
-49.933
-48.183
-46.624
-45.267
-44.128
-43.215
-42.524
-42.046
-41.758
-41.621
-41.601
-41.671
-41.802
-41.98
-42.178
-42.366
-42.521
-42.611
-42.603
-42.479
-42.217
-41.818
-41.328
-40.805
-40.326
-39.993
-39.871
-40.045
-40.614
-41.65
-43.252
-45.512
-48.451
-52.158
-56.749
-62.202
-68.42
-75.132
-81.802
-87.975
-93.263
-97.107
-99.113
-99.227
-97.565
-94.835
-92.176
-90.419
-90.429
-93.124
-98.647
-106.391
-115.31
-123.333
-127.674
-125.843
-114.944
-91.757
-55.957
-9.905
44.28
103.005
166.068
238.18
317.839
398.713
467.607
502.919
492.682
436.398
344.826
240.32
138.966
49.034
-27.677
-96.286
-157.065
-207.148
-244.372
-265.657
-271.699
-266.462
-253.127
-235.386
-217.349
-201.302
-188.608
-180.111
-175.229
-172.805
-172.005
-171.578
-169.888
-166.127
-159.989
-151.494
-141.34
-130.249
-118.73
-107.446
-97.088
-88.016
-80.413
-74.288
-69.417
-65.607
-62.707
-60.512
-58.827
-57.492
-56.349
-55.252
-54.079
-52.731
-51.128
-49.227
-47.007
-44.461
-41.597
-38.452
-35.082
-31.54
-27.888
-24.176
-20.447
-16.761
-13.179
-9.77
-6.601
-3.72
-1.153
1.079
2.966
4.508
5.71
6.591
7.182
7.505
7.58
7.426
7.057
6.497
5.771
4.903
3.917
2.837
1.681
0.471
-0.773
-2.035
-3.298
-4.549
-5.776
-6.966
-8.103
-9.173
-10.161
-11.054
-11.841
-12.51
-13.05
-13.455
-13.718
-13.834
-13.802
-13.621
-13.29
-12.81
-12.186
-11.422
-10.523
-9.497
-8.35
-7.094
-5.738
-4.294
-2.774
-1.19
0.442
2.111
3.8
5.495
7.182
8.846
10.471
12.043
13.549
14.973
16.302
17.524
18.628
19.601
20.435
21.121
21.651
22.02
22.224
22.26
22.125
21.822
21.35
20.713
19.917
18.965
17.866
16.628
15.259
13.77
12.172
10.477
8.697
6.846
4.936
2.982
0.998
-1.001
-3.003
-4.991
-6.952
-8.872
-10.737
-12.534
-14.252
-15.878
-17.401
-18.811
-20.1
-21.259
-22.282
-23.164
-23.9
-24.489
-24.929
-25.221
-25.366
-25.369
-25.233
-24.965
-24.57
-24.057
-23.434
-22.711
-21.899
-21.007
-20.047
-19.031
-17.971
-16.881
-15.772
-14.657
-13.548
-12.46
-11.403
-10.391
-9.436
-8.549
-7.742
-7.025
-6.409
-5.902
-5.514
-5.252
-5.121
-5.127
-5.275
-5.567
-6.005
-6.589
-7.319
-8.193
-9.209
-10.364
-11.652
-13.069
-14.609
-16.265
-18.029
-19.895
-21.855
-23.898
-26.017
-28.202
-30.443
-32.731
-35.053
-37.4
-39.758
-42.118
-44.466
-46.792
-49.083
-51.326
-53.511
-55.625
-57.657
-59.597
-61.433
-63.155
-64.753
-66.218
-67.543
-68.72
-69.739
-70.596
-71.285
-71.799
-72.137
-72.294
-72.266
-72.051
-71.647
-71.053
-70.269
-69.296
-68.134
-66.787
-65.26
-63.561
-61.697
-59.677
-57.51
-55.206
-52.779
-50.238
-47.596
-44.861
-42.046
-39.163
-36.226
-33.252
-30.257
-27.256
-24.264
-21.297
-18.374
-15.507
-12.705
-9.977
-7.332
-4.786
-2.364
-0.084
2.042
4
5.78
7.378
8.795
10.043
11.154
12.156
13.076
13.932
14.73
15.488
16.229
16.987
17.799
18.684
19.648
20.699
21.852
23.097
24.383
25.628
26.711
27.537
28.048
28.182
27.852
26.962
25.404
23.073
19.926
15.906
10.9
4.917
-1.94
-9.409
-16.973
-24.125
-30.494
-35.608
-38.948
-40.369
-39.945
-38.142
-36.053
-34.477
-33.876
-35
-38.429
-43.933
-50.746
-57.186
-60.582
-58.871
-50.016
-31.261
-0.566
43.107
98.438
161.107
228.015
297.087
367.845
441.771
511.764
565.855
592.708
580.229
530.948
457.997
371.333
279.645
182.954
76.399
-34.594
-135.106
-208.518
-243.767
-243.288
-222.741
-198.589
-180.173
-169.243
-161.199
-151.944
-141.024
-130.017
-121.24
-115.032
-110.198
-105.055
-97.541
-86.854
-73.101
-56.598
-38.243
-19.036
0.239
18.676
35.374
49.802
61.636
70.73
77.194
81.168
82.806
82.346
80.047
76.159
70.982
64.849
58.101
51.067
44.026
37.198
30.781
24.971
19.929
15.755
12.497
10.162
8.733
8.183
8.47
9.503
11.152
13.254
15.627
18.1
20.546
22.865
24.972
26.791
28.267
29.37
30.101
30.474
30.501
30.191
29.559
28.634
27.466
26.108
24.623
23.073
21.504
19.951
18.444
17.005
15.647
14.378
13.197
12.096
11.076
10.139
9.29
8.532
7.867
7.291
6.804
6.401
6.08
5.841
5.681
5.602
5.606
5.694
5.869
6.135
6.494
6.944
7.485
8.113
8.823
9.613
10.477
11.41
12.409
13.469
14.586
15.758
16.981
18.25
19.564
20.916
22.304
23.721
25.164
26.627
28.105
29.592
31.083
32.573
34.056
35.528
36.984
38.419
39.829
41.21
42.558
43.869
45.141
46.371
47.557
48.698
49.792
50.84
51.84
52.793
53.697
54.555
55.364
56.125
56.839
57.505
58.124
58.697
59.224
59.708
60.15
60.552
60.918
61.249
61.549
61.82
62.067
62.292
62.5
62.693
62.876
63.052
63.224
63.395
63.569
63.748
63.935
64.13
64.337
64.557
64.791
65.041
65.307
65.59
65.891
66.212
66.552
66.912
67.291
67.691
68.109
68.546
69
69.47
69.955
70.452
70.96
71.475
71.997
72.52
73.043
73.563
74.076
74.579
75.069
75.542
75.996
76.427
76.833
77.21
77.558
77.872
78.15
78.39
78.589
78.744
78.854
78.916
78.928
78.887
78.792
78.641
78.433
78.166
77.839
77.453
77.006
76.499
75.933
75.307
74.624
73.885
73.092
72.248
71.357
70.421
69.445
68.432
67.389
66.32
65.231
64.126
63.013
61.897
60.786
59.686
58.605
57.552
56.533
55.557
54.634
53.772
52.979
52.264
51.634
51.098
50.663
50.338
50.129
50.042
50.083
50.257
50.57
51.025
51.623
52.366
53.253
54.282
55.452
56.756
58.189
59.743
61.41
63.181
65.045
66.993
69.01
71.088
73.212
75.369
77.544
79.72
81.879
84.004
86.077
88.076
89.984
91.78
93.444
94.967
96.335
97.532
98.541
99.338
99.902
100.226
100.3
100.115
99.671
98.969
98.025
96.878
95.565
94.114
92.55
90.877
89.107
87.265
85.376
83.475
81.587
79.711
77.85
76.025
74.232
72.45
70.617
68.599
66.279
63.574
60.421
56.803
52.687
48.003
42.704
36.731
30.044
22.684
14.627
5.782
-3.775
-13.857
-24.063
-33.686
-42.132
-48.971
-53.682
-55.914
-55.635
-53.009
-48.824
-44.371
-40.663
-38.643
-39.169
-42.354
-47.744
-54.366
-60.071
-62.135
-58.051
-45.105
-20.849
15.896
65.308
126.436
196.341
270.815
345.164
413.938
470.984
510.759
528.907
521.83
489.73
436.653
365.148
277.971
177.706
64.016
-55.054
-164.729
-252.341
-305.483
-324.729
-322.339
-308.126
-289.086
-263.71
-225.198
-174.229
-121.26
-82.202
-72.908
-98.374
-147.002
-199.383
-233.54
-235.309
-206.769
-159.38
-110.701
-74.92
-55.76
-50.213
-50.068
-48.653
-44.096
-37.049
-30.153
-24.924
-21.191
-18.612
-16.711
-15.438
-15.107
-15.772
-17.28
-19.475
-22.135
-25.016
-27.913
-30.646
-33.095
-35.233
-37.069
-38.564
-39.65
-40.281
-40.434
-40.129
-39.416
-38.335
-36.959
-35.375
-33.693
-32.047
-30.531
-29.196
-28.064
-27.138
-26.416
-25.919
-25.672
-25.677
-25.934
-26.436
-27.174
-28.143
-29.323
-30.678
-32.153
-33.685
-35.228
-36.754
-38.244
-39.684
-41.063
-42.366
-43.585
-44.722
-45.774
-46.735
-47.598
-48.35
-48.987
-49.509
-49.924
-50.238
-50.457
-50.584
-50.621
-50.573
-50.444
-50.235
-49.946
-49.574
-49.121
-48.59
-47.986
-47.313
-46.576
-45.781
-44.934
-44.04
-43.108
-42.141
-41.147
-40.128
-39.092
-38.043
-36.988
-35.933
-34.882
-33.841
-32.817
-31.813
-30.836
-29.889
-28.976
-28.102
-27.269
-26.48
-25.739
-25.048
-24.408
-23.823
-23.294
-22.824
-22.413
-22.065
-21.779
-21.557
-21.401
-21.312
-21.29
-21.336
-21.451
-21.635
-21.887
-22.209
-22.598
-23.055
-23.578
-24.165
-24.815
-25.525
-26.292
-27.115
-27.989
-28.912
-29.88
-30.889
-31.936
-33.016
-34.127
-35.263
-36.422
-37.598
-38.789
-39.989
-41.196
-42.405
-43.611
-44.81
-45.998
-47.171
-48.324
-49.453
-50.554
-51.625
-52.661
-53.662
-54.624
-55.547
-56.429
-57.271
-58.072
-58.834
-59.558
-60.246
-60.901
-61.525
-62.122
-62.697
-63.253
-63.795
-64.326
-64.853
-65.379
-65.909
-66.448
-67
-67.569
-68.161
-68.779
-69.428
-70.112
-70.835
-71.599
-72.408
-73.265
-74.17
-75.126
-76.131
-77.186
-78.288
-79.436
-80.626
-81.852
-83.109
-84.391
-85.69
-86.999
-88.308
-89.607
-90.887
-92.135
-93.342
-94.495
-95.583
-96.594
-97.516
-98.336
-99.045
-99.63
-100.08
-100.383
-100.529
-100.509
-100.314
-99.935
-99.364
-98.595
-97.622
-96.442
-95.051
-93.45
-91.638
-89.618
-87.396
-84.978
-82.375
-79.596
-76.653
-73.559
-70.329
-66.979
-63.521
-59.972
-56.347
-52.662
-48.936
-45.191
-41.447
-37.723
-34.04
-30.419
-26.882
-23.447
-20.128
-16.939
-13.895
-11.016
-8.331
-5.86
-3.621
-1.627
0.11
1.586
2.805
3.78
4.542
5.121
5.545
5.833
5.993
6.043
6.008
5.925
5.837
5.771
5.736
5.746
5.818
5.944
6.082
6.158
6.054
5.69
5.022
4.003
2.576
0.666
-1.823
-4.991
-8.886
-13.563
-19.125
-25.56
-32.772
-40.502
-48.229
-55.415
-61.648
-66.468
-69.409
-70.409
-69.621
-67.552
-65.369
-64.037
-64.138
-66.459
-71.529
-78.926
-87.725
-96.254
-101.638
-101.337
-93.248
-74.772
-43.934
-0.355
55.346
121.213
193.411
267.734
339.61
403.284
453.297
485.724
497.677
487.52
455.618
403.782
335.27
255.243
169.592
83.579
2.146
-69.915
-128.968
-173.005
-201.604
-216.165
-219.27
-213.501
-201.642
-187.122
-173.092
-161.616
-153.736
-149.341
-147.505
-147.359
-147.953
-147.883
-145.786
-140.881
-132.931
-122.314
-109.804
-96.05
-81.608
-67.151
-53.332
-40.623
-29.322
-19.503
-11.089
-4.037
1.653
6.004
9.065
10.913
11.661
11.453
10.447
8.781
6.584
3.989
1.132
-1.833
-4.745
-7.495
-10.008
-12.2
-13.981
-15.262
-15.973
-16.09
-15.638
-14.66
-13.215
-11.358
-9.139
-6.627
-3.904
-1.06
1.802
4.611
7.325
9.889
12.25
14.36
16.176
17.685
18.895
19.813
20.446
20.806
20.907
20.773
20.439
19.941
19.321
18.61
17.828
16.997
16.134
15.253
14.369
13.484
12.596
11.707
10.82
9.942
9.079
8.233
7.405
6.597
5.809
5.045
4.306
3.597
2.924
2.292
1.706
1.174
0.703
0.3
-0.032
-0.289
-0.472
-0.579
-0.612
-0.571
-0.459
-0.277
-0.028
0.285
0.662
1.1
1.595
2.144
2.742
3.385
4.067
4.783
5.525
6.289
7.066
7.85
8.634
9.411
10.174
10.915
11.629
12.308
12.944
13.533
14.069
14.545
14.959
15.305
15.581
15.785
15.915
15.97
15.949
15.853
15.682
15.436
15.116
14.724
14.262
13.731
13.135
12.478
11.763
10.995
10.181
9.325
8.433
7.513
6.57
5.612
4.645
3.677
2.715
1.765
0.835
-0.067
-0.937
-1.767
-2.553
-3.288
-3.969
-4.591
-5.152
-5.648
-6.077
-6.438
-6.728
-6.947
-7.093
-7.168
-7.171
-7.103
-6.966
-6.762
-6.494
-6.165
-5.779
-5.339
-4.849
-4.316
-3.743
-3.137
-2.503
-1.848
-1.178
-0.501
0.177
0.849
1.508
2.146
2.759
3.339
3.88
4.376
4.823
5.216
5.548
5.816
6.015
6.143
6.196
6.172
6.069
5.886
5.622
5.277
4.851
4.345
3.76
3.096
2.358
1.546
0.665
-0.282
-1.289
-2.35
-3.46
-4.611
-5.796
-7.008
-8.238
-9.478
-10.719
-11.952
-13.168
-14.357
-15.51
-16.616
-17.666
-18.648
-19.555
-20.377
-21.105
-21.73
-22.246
-22.645
-22.921
-23.067
-23.078
-22.949
-22.674
-22.25
-21.673
-20.943
-20.057
-19.016
-17.823
-16.482
-14.999
-13.381
-11.637
-9.774
-7.801
-5.731
-3.574
-1.338
0.964
3.322
5.722
8.15
10.588
13.02
15.428
17.797
20.109
22.349
24.502
26.561
28.515
30.355
32.063
33.614
34.988
36.169
37.142
37.897
38.43
38.746
38.862
38.81
38.623
38.327
37.944
37.484
36.962
36.399
35.829
35.289
34.81
34.41
34.103
33.909
33.82
33.789
33.735
33.541
33.101
32.355
31.238
29.663
27.542
24.767
21.228
16.885
11.669
5.448
-1.761
-9.844
-18.541
-27.285
-35.524
-42.884
-48.869
-52.974
-55.156
-55.543
-54.648
-53.701
-53.607
-54.833
-58.075
-63.711
-71.19
-79.568
-87.074
-90.772
-88.288
-77.691
-56.688
-23.672
21.714
78.961
146.1
219.411
294.983
368.579
435.233
489.883
527.815
545.369
539.994
512.173
465.429
401.997
323.907
232.799
127.904
16.012
-89.429
-176.252
-231.19
-251.911
-247.972
-228.171
-203.555
-180.111
-156.112
-132.154
-108.608
-86.598
-70.455
-62.174
-61.104
-65.557
-72.059
-77.595
-80.957
-81.447
-78.55
-72.053
-62.112
-49.617
-36.21
-23.345
-11.749
-1.735
6.577
13.029
17.501
20.225
21.737
22.505
22.799
22.711
22.284
21.707
21.19
20.844
20.692
20.698
20.85
21.183
21.735
22.507
23.466
24.556
25.744
27.039
28.442
29.953
31.525
33.05
34.452
35.682
36.706
37.513
38.09
38.413
38.486
38.34
38.001
37.501
36.855
36.055
35.099
33.986
32.729
31.367
29.927
28.428
26.891
25.328
23.754
22.194
20.655
19.13
17.617
16.115
14.624
13.159
11.728
10.336
8.99
7.69
6.44
5.243
4.1
3.012
1.975
0.989
0.053
-0.829
-1.654
-2.42
-3.126
-3.772
-4.357
-4.879
-5.338
-5.736
-6.072
-6.347
-6.562
-6.716
-6.808
-6.839
-6.81
-6.719
-6.569
-6.358
-6.089
-5.763
-5.381
-4.947
-4.461
-3.929
-3.352
-2.734
-2.078
-1.39
-0.672
0.07
0.832
1.609
2.396
3.188
3.978
4.761
5.531
6.283
7.01
7.707
8.368
8.988
9.56
10.081
10.543
10.943
11.276
11.538
11.726
11.834
11.862
11.807
11.667
11.442
11.131
10.734
10.254
9.691
9.048
8.329
7.537
6.677
5.752
4.77
3.735
2.653
1.53
0.373
-0.811
-2.015
-3.233
-4.458
-5.682
-6.898
-8.1
-9.281
-10.434
-11.554
-12.634
-13.669
-14.655
-15.587
-16.46
-17.271
-18.017
-18.696
-19.306
-19.847
-20.317
-20.717
-21.048
-21.313
-21.513
-21.652
-21.733
-21.761
-21.739
-21.672
-21.567
-21.427
-21.26
-21.072
-20.869
-20.657
-20.443
-20.234
-20.037
-19.857
-19.702
-19.578
-19.49
-19.445
-19.448
-19.504
-19.618
-19.795
-20.039
-20.352
-20.738
-21.198
-21.735
-22.348
-23.038
-23.802
-24.641
-25.551
-26.529
-27.572
-28.676
-29.834
-31.043
-32.295
-33.583
-34.901
-36.239
-37.589
-38.943
-40.293
-41.628
-42.939
-44.217
-45.451
-46.633
-47.751
-48.797
-49.759
-50.628
-51.394
-52.048
-52.582
-52.988
-53.258
-53.385
-53.363
-53.188
-52.857
-52.365
-51.711
-50.892
-49.911
-48.769
-47.467
-46.011
-44.404
-42.654
-40.77
-38.761
-36.639
-34.415
-32.102
-29.713
-27.263
-24.765
-22.234
-19.681
-17.12
-14.567
-12.038
-9.551
-7.121
-4.767
-2.502
-0.345
1.688
3.586
5.343
6.951
8.404
9.69
10.788
11.684
12.371
12.839
13.084
13.108
12.917
12.533
11.992
11.328
10.57
9.737
8.838
7.892
6.923
5.963
5.056
4.23
3.505
2.912
2.477
2.19
2.013
1.871
1.651
1.28
0.714
-0.111
-1.247
-2.74
-4.66
-7.069
-10.006
-13.591
-17.986
-23.19
-29.144
-35.651
-42.203
-48.307
-53.536
-57.24
-58.797
-58.169
-55.454
-51.009
-46.287
-42.692
-41.083
-42.99
-48.413
-54.58
-60.918
-67.416
-74.308
-85.362
-96.846
-97.864
-78.191
-27.804
50.742
143.699
239.673
331.51
421.066
512.186
597.506
659.442
677.498
639.769
552.177
435.625
312.132
196.451
93.757
0.617
-84.119
-156.981
-213.941
-250.61
-266.225
-264.314
-249.513
-226.735
-201.175
-177.293
-157.931
-144.676
-137.772
-136.135
-138.175
-142.194
-146.019
-147.572
-145.747
-140.151
-131.049
-119.299
-105.82
-91.465
-77.199
-63.909
-52.062
-41.853
-33.284
-26.192
-20.486
-16.145
-13.066
-11.105
-10.163
-10.113
-10.802
-12.078
-13.706
-15.425
-17.058
-18.472
-19.584
-20.368
-20.791
-20.815
-20.416
-19.544
-18.168
-16.286
-13.901
-11.041
-7.776
-4.198
-0.44
3.338
7.024
10.54
13.836
16.9
19.718
22.272
24.562
26.579
28.314
29.765
30.926
31.793
32.382
32.72
32.852
32.846
32.749
32.595
32.41
32.206
31.996
31.793
31.599
31.413
31.237
31.08
30.95
30.862
30.826
30.844
30.918
31.044
31.218
31.441
31.71
32.025
32.384
32.789
33.239
33.741
34.294
34.9
35.554
36.252
36.991
37.767
38.574
39.407
40.26
41.129
42.008
42.894
43.783
44.67
45.55
46.419
47.272
48.103
48.909
49.684
50.423
51.123
51.778
52.386
52.942
53.445
53.891
54.278
54.605
54.87
55.071
55.208
55.279
55.284
55.223
55.096
54.903
54.645
54.321
53.934
53.484
52.972
52.399
51.765
51.072
50.32
49.512
48.649
47.732
46.764
45.747
44.683
43.575
42.425
41.235
40.01
38.75
37.459
36.138
34.792
33.422
32.03
30.619
29.191
27.748
26.293
24.828
23.355
21.875
20.392
18.908
17.424
15.943
14.466
12.997
11.535
10.084
8.644
7.217
5.804
4.404
3.019
1.649
0.294
-1.047
-2.374
-3.687
-4.988
-6.277
-7.556
-8.824
-10.083
-11.335
-12.579
-13.817
-15.05
-16.279
-17.505
-18.728
-19.949
-21.17
-22.391
-23.613
-24.838
-26.067
-27.3
-28.539
-29.785
-31.039
-32.301
-33.572
-34.852
-36.143
-37.443
-38.752
-40.071
-41.398
-42.733
-44.074
-45.422
-46.774
-48.129
-49.485
-50.841
-52.196
-53.547
-54.894
-56.234
-57.566
-58.889
-60.201
-61.5
-62.786
-64.055
-65.307
-66.538
-67.746
-68.929
-70.082
-71.204
-72.289
-73.336
-74.34
-75.298
-76.207
-77.061
-77.859
-78.596
-79.268
-79.871
-80.402
-80.857
-81.233
-81.527
-81.736
-81.856
-81.887
-81.824
-81.666
-81.412
-81.059
-80.604
-80.047
-79.387
-78.624
-77.757
-76.787
-75.716
-74.548
-73.288
-71.943
-70.52
-69.024
-67.466
-65.852
-64.194
-62.499
-60.773
-59.024
-57.26
-55.491
-53.729
-51.987
-50.275
-48.606
-46.99
-45.439
-43.965
-42.575
-41.269
-40.053
-38.933
-37.923
-37.047
-36.324
-35.763
-35.376
-35.167
-35.134
-35.268
-35.549
-35.939
-36.403
-36.914
-37.45
-38.006
-38.569
-39.11
-39.598
-39.989
-40.249
-40.365
-40.315
-40.088
-39.714
-39.242
-38.753
-38.369
-38.173
-38.237
-38.661
-39.514
-40.883
-42.886
-45.578
-49.056
-53.481
-58.857
-65.091
-71.988
-79.049
-85.783
-91.845
-96.682
-99.719
-100.855
-100.194
-98.283
-96.393
-95.477
-96.091
-99.061
-104.963
-113.459
-123.716
-133.893
-140.861
-141.992
-135.09
-117.594
-87.445
-43.781
13.294
81.995
158.388
238.303
317.331
389.9
450.095
492.516
512.496
508.118
481.325
434.797
370.601
288.379
186.948
69.559
-53.522
-163.76
-243.294
-283.425
-286.888
-268.541
-244.456
-224.224
-210.7
-200.254
-189.532
-178.382
-168.413
-162.359
-160.711
-161.745
-163.242
-162.56
-158.37
-150.625
-139.451
-125.447
-109.478
-92.312
-74.908
-58.3
-43.056
-29.43
-17.551
-7.331
1.284
8.255
13.658
17.611
20.191
21.533
21.781
21.066
19.583
17.538
15.109
12.492
9.866
7.343
5.017
2.959
1.221
-0.104
-0.936
-1.237
-0.988
-0.215
1.028
2.688
4.689
6.937
9.34
11.792
14.183
16.451
18.555
20.466
22.167
23.622
24.799
25.689
26.297
26.636
26.724
26.577
26.211
25.667
24.988
24.222
23.423
22.626
21.854
21.128
20.464
19.877
19.382
18.985
18.681
18.475
18.368
18.366
18.476
18.695
19.019
19.44
19.952
20.549
21.227
21.979
22.801
23.688
24.636
25.643
26.707
27.825
28.99
30.197
31.44
32.71
34.002
35.308
36.62
37.932
39.238
40.531
41.809
43.065
44.295
45.495
46.661
47.79
48.879
49.926
50.928
51.884
52.793
53.656
54.474
55.248
55.979
56.671
57.325
57.944
58.532
59.091
59.625
60.137
60.63
61.108
61.573
62.029
62.478
62.924
63.369
63.815
64.263
64.717
65.176
65.642
66.114
66.595
67.082
67.577
68.077
68.583
69.092
69.604
70.116
70.626
71.131
71.629
72.117
72.591
73.048
73.485
73.899
74.286
74.644
74.97
75.261
75.516
75.733
75.91
76.046
76.14
76.192
76.201
76.167
76.091
75.973
75.813
75.612
75.372
75.094
74.779
74.428
74.045
73.63
73.186
72.716
72.22
71.703
71.166
70.612
70.043
69.462
68.87
68.271
67.665
67.054
66.44
65.823
65.203
64.582
63.958
63.33
62.7
62.064
61.423
60.774
60.116
59.447
58.767
58.074
57.365
56.64
55.897
55.133
54.348
53.54
52.707
51.848
50.963
50.049
49.107
48.135
47.135
46.105
45.047
43.961
42.85
41.714
40.555
39.376
38.181
36.974
35.758
34.538
33.32
32.11
30.913
29.737
28.588
27.471
26.394
25.363
24.386
23.469
22.619
21.843
21.147
20.538
20.024
19.611
19.304
19.11
19.033
19.078
19.251
19.555
19.992
20.565
21.277
22.128
23.119
24.25
25.518
26.921
28.454
30.115
31.896
33.79
35.786
37.873
40.043
42.282
44.58
46.922
49.297
51.691
54.097
56.502
58.895
61.263
63.591
65.865
68.072
70.197
72.227
74.149
75.952
77.628
79.175
80.586
81.85
82.956
83.886
84.623
85.162
85.496
85.622
85.55
85.294
84.878
84.34
83.704
82.992
82.223
81.408
80.569
79.738
78.94
78.204
77.563
77.039
76.654
76.411
76.264
76.158
76.026
75.788
75.406
74.836
74.006
72.857
71.306
69.264
66.704
63.561
59.705
55.147
49.996
44.506
39.208
34.564
30.882
28.595
28.019
29.07
31.473
34.544
37.115
38.368
37.704
34.356
28.179
19.879
10.642
2.448
-2.159
-1.11
7.639
26.514
56.887
98.729
150.978
211.129
275.669
340.929
402.5
454.84
492.96
513.197
512.995
491.6
449.938
390.09
315.672
232.24
145.966
62.576
-12.461
-74.871
-122.18
-153.308
-168.681
-170.538
-162.135
-146.913
-128.778
-111.305
-96.731
-86.323
-80.414
-78.32
-78.889
-80.863
-82.618
-82.579
-79.971
-74.572
-66.648
-56.901
-46.035
-34.691
-23.601
-13.457
-4.644
2.672
8.478
12.909
16.034
17.863
18.467
17.948
16.408
13.982
10.834
7.132
3.065
-1.155
-5.374
-9.472
-13.36
-17.006
-20.381
-23.459
-26.2
-28.545
-30.446
-31.887
-32.874
-33.431
-33.621
-33.523
-33.239
-32.899
-32.599
-32.4
-32.344
-32.437
-32.681
-33.084
-33.653
-34.401
-35.337
-36.466
-37.788
-39.306
-41.005
-42.86
-44.832
-46.859
-48.895
-50.911
-52.883
-54.803
-56.661
-58.448
-60.161
-61.801
-63.367
-64.856
-66.258
-67.563
-68.765
-69.86
-70.851
-71.745
-72.547
-73.258
-73.881
-74.418
-74.869
-75.236
-75.516
-75.705
-75.798
-75.797
-75.701
-75.515
-75.242
-74.883
-74.443
-73.927
-73.341
-72.69
-71.979
-71.211
-70.393
-69.53
-68.628
-67.693
-66.732
-65.75
-64.756
-63.755
-62.756
-61.764
-60.786
-59.828
-58.896
-57.995
-57.132
-56.311
-55.537
-54.816
-54.153
-53.553
-53.022
-52.563
-52.181
-51.88
-51.661
-51.529
-51.484
-51.526
-51.657
-51.876
-52.181
-52.573
-53.049
-53.606
-54.242
-54.953
-55.734
-56.582
-57.492
-58.459
-59.477
-60.54
-61.644
-62.783
-63.951
-65.143
-66.353
-67.576
-68.804
-70.033
-71.255
-72.464
-73.655
-74.819
-75.953
-77.049
-78.103
-79.109
-80.063
-80.961
-81.801
-82.578
-83.291
-83.938
-84.519
-85.034
-85.482
-85.866
-86.186
-86.445
-86.645
-86.789
-86.879
-86.92
-86.913
-86.862
-86.77
-86.64
-86.478
-86.286
-86.068
-85.831
-85.578
-85.315
-85.047
-84.779
-84.518
-84.267
-84.034
-83.822
-83.636
-83.482
-83.364
-83.285
-83.249
-83.259
-83.317
-83.425
-83.582
-83.79
-84.048
-84.354
-84.709
-85.109
-85.554
-86.042
-86.57
-87.137
-87.74
-88.375
-89.039
-89.728
-90.438
-91.164
-91.899
-92.638
-93.374
-94.101
-94.813
-95.501
-96.158
-96.778
-97.351
-97.871
-98.329
-98.719
-99.032
-99.261
-99.401
-99.447
-99.394
-99.238
-98.974
-98.6
-98.114
-97.514
-96.799
-95.966
-95.016
-93.948
-92.763
-91.463
-90.052
-88.531
-86.906
-85.185
-83.374
-81.484
-79.522
-77.5
-75.427
-73.316
-71.177
-69.022
-66.86
-64.701
-62.557
-60.44
-58.362
-56.336
-54.375
-52.491
-50.696
-49.005
-47.425
-45.96
-44.615
-43.396
-42.312
-41.38
-40.613
-40.016
-39.601
-39.372
-39.329
-39.467
-39.759
-40.164
-40.643
-41.16
-41.683
-42.197
-42.674
-43.084
-43.398
-43.577
-43.601
-43.461
-43.133
-42.601
-41.875
-40.996
-40.065
-39.221
-38.584
-38.256
-38.312
-38.826
-39.898
-41.63
-44.111
-47.412
-51.54
-56.54
-62.533
-69.503
-77.257
-85.405
-93.284
-100.262
-105.897
-109.673
-111.109
-110.102
-106.899
-102.299
-97.644
-94.036
-92.298
-93.146
-96.74
-102.484
-108.943
-113.642
-113.62
-106.007
-87.821
-56.488
-10.575
48.562
116.397
187.899
258.997
329.86
402.572
473.984
535.926
573.483
570.662
521.086
426.305
297.379
152.841
11.096
-108.662
-192.431
-236.619
-247.11
-238.99
-226.467
-217.33
-212.598
-206.79
-197.011
-184.312
-171.177
-161.807
-157.721
-157.341
-158.841
-160
-158.701
-154.204
-146.332
-135.073
-121.138
-105.444
-88.739
-71.95
-56.038
-41.509
-28.641
-17.596
-8.242
-0.512
5.564
10.083
13.153
14.862
15.37
14.817
13.343
11.178
8.546
5.656
2.74
-0.058
-2.648
-4.937
-6.883
-8.432
-9.487
-9.995
-9.931
-9.279
-8.079
-6.377
-4.225
-1.721
1.022
3.892
6.756
9.529
12.172
14.645
16.933
19.02
20.862
22.44
23.756
24.806
25.597
26.139
26.433
26.504
26.396
26.154
25.832
25.466
25.073
24.669
24.266
23.871
23.496
23.145
22.81
22.492
22.196
21.928
21.697
21.508
21.357
21.24
21.155
21.099
21.074
21.08
21.117
21.186
21.291
21.436
21.628
21.87
22.163
22.507
22.901
23.344
23.835
24.372
24.951
25.57
26.225
26.916
27.64
28.394
29.176
29.981
30.805
31.645
32.496
33.352
34.207
35.056
35.893
36.711
37.506
38.271
39.002
39.692
40.337
40.931
41.471
41.95
42.364
42.711
42.986
43.187
43.312
43.36
43.33
43.221
43.034
42.77
42.429
42.013
41.523
40.962
40.331
39.635
38.875
38.057
37.185
36.262
35.295
34.289
33.25
32.183
31.093
29.986
28.869
27.747
26.624
25.507
24.4
23.308
22.235
21.187
20.167
19.178
18.223
17.305
16.425
15.587
14.79
14.036
13.326
12.658
12.034
11.453
10.914
10.415
9.955
9.532
9.145
8.791
8.468
8.174
7.905
7.661
7.437
7.233
7.046
6.874
6.715
6.567
6.429
6.299
6.175
6.057
5.942
5.831
5.721
5.611
5.502
5.392
5.281
5.169
5.055
4.938
4.819
4.696
4.571
4.442
4.31
4.175
4.035
3.891
3.742
3.587
3.426
3.257
3.08
2.892
2.692
2.48
2.252
2.008
1.746
1.464
1.162
0.837
0.49
0.118
-0.279
-0.701
-1.149
-1.622
-2.12
-2.642
-3.186
-3.752
-4.336
-4.935
-5.548
-6.17
-6.798
-7.428
-8.055
-8.673
-9.278
-9.864
-10.425
-10.952
-11.44
-11.88
-12.266
-12.591
-12.846
-13.025
-13.12
-13.124
-13.031
-12.836
-12.533
-12.115
-11.58
-10.922
-10.14
-9.231
-8.195
-7.03
-5.74
-4.328
-2.799
-1.16
0.582
2.418
4.34
6.337
8.399
10.516
12.678
14.877
17.101
19.334
21.563
23.773
25.948
28.073
30.131
32.107
33.986
35.763
37.426
38.966
40.369
41.611
42.673
43.541
44.199
44.638
44.855
44.852
44.648
44.279
43.777
43.176
42.503
41.772
41.008
40.236
39.49
38.81
38.227
37.756
37.422
37.244
37.209
37.269
37.344
37.303
37.045
36.497
35.571
34.179
32.226
29.595
26.191
21.966
16.845
10.707
3.549
-4.535
-13.241
-21.979
-30.159
-37.29
-42.806
-46.158
-47.156
-45.877
-42.95
-39.732
-37.403
-36.838
-38.958
-44.282
-52.473
-62.604
-72.547
-78.854
-78.303
-67.957
-44.869
-7.07
46.001
113.743
193.363
279.977
368.256
452.054
524.367
578.822
610.073
615.287
595.474
552.959
489.611
404.66
296.324
168.266
31.879
-92.858
-185.295
-235.111
-245.395
-231.511
-210.271
-191.263
-175.983
-159.707
-139.583
-117.118
-95.557
-78.847
-68.28
-62.534
-59.973
-58.696
-57.032
-53.861
-48.545
-41.028
-31.793
-21.576
-11.02
-0.675
8.902
17.201
23.957
29.141
32.912
35.559
37.322
38.378
38.917
39.137
39.218
39.326
39.592
40.082
40.843
41.909
43.293
45.003
47.021
49.303
51.793
54.436
57.184
59.996
62.831
65.64
68.364
70.943
73.317
75.448
77.311
78.892
80.185
81.189
81.913
82.38
82.616
82.645
82.486
82.154
81.661
81.027
80.27
79.411
78.468
77.457
76.39
75.282
74.144
72.988
71.819
70.643
69.465
68.29
67.125
65.976
64.851
63.756
62.697
61.68
60.712
59.796
58.938
58.141
57.405
56.735
56.13
55.592
55.12
54.713
54.371
54.09
53.868
53.701
53.587
53.52
53.495
53.508
53.553
53.623
53.713
53.817
53.929
54.043
54.153
54.253
54.339
54.404
54.444
54.453
54.427
54.361
54.25
54.089
53.875
53.603
53.271
52.875
52.413
51.883
51.284
50.614
49.874
49.063
48.183
47.233
46.215
45.132
43.987
42.782
41.521
40.208
38.848
37.444
36.002
34.527
33.022
31.494
29.947
28.385
26.813
25.236
23.657
22.082
20.514
18.959
17.42
15.901
14.405
12.937
11.498
10.093
8.723
7.39
6.097
4.844
3.634
2.466
1.342
0.261
-0.777
-1.772
-2.727
-3.642
-4.519
-5.362
-6.172
-6.951
-7.703
-8.431
-9.136
-9.821
-10.489
-11.143
-11.784
-12.415
-13.039
-13.657
-14.271
-14.883
-15.495
-16.107
-16.722
-17.34
-17.963
-18.591
-19.225
-19.866
-20.514
-21.171
-21.837
-22.512
-23.197
-23.892
-24.597
-25.311
-26.034
-26.765
-27.504
-28.25
-29.003
-29.761
-30.524
-31.29
-32.061
-32.834
-33.609
-34.386
-35.164
-35.944
-36.726
-37.509
-38.294
-39.082
-39.873
-40.668
-41.467
-42.272
-43.083
-43.899
-44.722
-45.552
-46.39
-47.234
-48.086
-48.946
-49.814
-50.69
-51.573
-52.465
-53.364
-54.271
-55.186
-56.109
-57.04
-57.977
-58.922
-59.873
-60.83
-61.793
-62.759
-63.728
-64.698
-65.665
-66.629
-67.584
-68.529
-69.458
-70.369
-71.257
-72.118
-72.948
-73.741
-74.493
-75.199
-75.854
-76.454
-76.994
-77.466
-77.868
-78.194
-78.44
-78.6
-78.67
-78.643
-78.518
-78.288
-77.95
-77.501
-76.937
-76.255
-75.453
-74.53
-73.487
-72.322
-71.039
-69.64
-68.131
-66.517
-64.806
-63.005
-61.123
-59.17
-57.156
-55.091
-52.984
-50.845
-48.684
-46.513
-44.346
-42.195
-40.072
-37.993
-35.972
-34.025
-32.169
-30.415
-28.767
-27.238
-25.836
-24.576
-23.479
-22.556
-21.814
-21.262
-20.905
-20.744
-20.776
-20.975
-21.306
-21.735
-22.235
-22.79
-23.391
-24.015
-24.637
-25.227
-25.755
-26.212
-26.596
-26.89
-27.085
-27.192
-27.247
-27.345
-27.598
-28.092
-28.892
-30.031
-31.552
-33.527
-36.023
-39.113
-42.847
-47.202
-52.206
-57.943
-64.357
-71.289
-78.4
-85.083
-90.817
-95.221
-97.818
-98.267
-96.536
-92.764
-87.637
-82.288
-77.589
-74.358
-73.406
-74.888
-78.401
-83.062
-86.893
-87.413
-82.397
-69.432
-46.274
-11.79
34.196
90.757
155.142
223.499
291.591
354.546
406.837
443.274
459.896
453.562
424.474
376.588
312.14
233.114
141.18
34.898
-78.807
-185.659
-272.565
-325.051
-341.342
-333.132
-311.326
-288.662
-270.675
-253.598
-236.578
-218.793
-200.564
-185.633
-174.899
-167.164
-161.356
-155.285
-147.128
-136.582
-123.675
-108.718
-92.536
-75.88
-59.376
-43.804
-29.923
-18.15
-8.693
-1.576
3.402
6.441
7.72
7.463
5.922
3.369
0.098
-3.59
-7.444
-11.286
-14.958
-18.331
-21.275
-23.652
-25.374
-26.409
-26.753
-26.42
-25.441
-23.842
-21.678
-19.063
-16.131
-13.036
-9.93
-6.905
-4.032
-1.372
1.027
3.116
4.864
6.275
7.366
8.15
8.639
8.842
8.775
8.487
8.028
7.456
6.832
6.196
5.576
5.001
4.49
4.056
3.71
3.449
3.265
3.156
3.124
3.171
3.3
3.506
3.782
4.122
4.516
4.957
5.439
5.955
6.497
7.062
7.647
8.247
8.863
9.491
10.126
10.762
11.392
12.01
12.609
13.184
13.728
14.235
14.703
15.126
15.504
15.834
16.116
16.349
16.532
16.666
16.75
16.787
16.777
16.722
16.625
16.487
16.311
16.101
15.861
15.593
15.303
14.992
14.664
14.323
13.973
13.617
13.258
12.9
12.546
12.199
11.864
11.542
11.236
10.949
10.682
10.437
10.213
10.012
9.833
9.676
9.541
9.427
9.332
9.257
9.199
9.156
9.128
9.112
9.107
9.11
9.12
9.134
9.151
9.169
9.187
9.202
9.214
9.22
9.22
9.212
9.193
9.164
9.122
9.066
8.995
8.907
8.802
8.678
8.533
8.366
8.177
7.964
7.726
7.461
7.168
6.848
6.498
6.119
5.71
5.27
4.8
4.299
3.766
3.203
2.609
1.985
1.331
0.647
-0.066
-0.806
-1.573
-2.366
-3.183
-4.024
-4.885
-5.765
-6.662
-7.573
-8.496
-9.427
-10.364
-11.303
-12.239
-13.171
-14.093
-15.002
-15.894
-16.766
-17.614
-18.436
-19.227
-19.987
-20.711
-21.398
-22.046
-22.654
-23.22
-23.743
-24.223
-24.659
-25.053
-25.404
-25.713
-25.981
-26.211
-26.403
-26.56
-26.684
-26.779
-26.847
-26.892
-26.919
-26.931
-26.933
-26.93
-26.927
-26.927
-26.937
-26.96
-27.001
-27.064
-27.152
-27.269
-27.417
-27.6
-27.818
-28.075
-28.372
-28.708
-29.083
-29.498
-29.95
-30.438
-30.961
-31.513
-32.093
-32.696
-33.318
-33.953
-34.597
-35.244
-35.886
-36.517
-37.129
-37.715
-38.267
-38.775
-39.233
-39.631
-39.961
-40.215
-40.387
-40.468
-40.45
-40.328
-40.095
-39.747
-39.278
-38.684
-37.961
-37.108
-36.122
-35.004
-33.754
-32.373
-30.863
-29.231
-27.482
-25.625
-23.665
-21.613
-19.477
-17.269
-14.998
-12.674
-10.306
-7.904
-5.48
-3.05
-0.627
1.774
4.137
6.448
8.693
10.854
12.921
14.887
16.742
18.472
20.06
21.481
22.716
23.753
24.579
25.188
25.581
25.766
25.768
25.626
25.37
25.031
24.628
24.17
23.685
23.208
22.777
22.44
22.225
22.145
22.22
22.467
22.855
23.324
23.775
24.069
24.11
23.834
23.163
22.028
20.323
17.924
14.729
10.678
5.721
-0.208
-7.074
-14.754
-22.964
-31.217
-39.008
-45.906
-51.553
-55.637
-58.169
-59.364
-59.487
-59.16
-58.921
-59.075
-59.927
-61.508
-63.052
-63.433
-61.639
-56.145
-45.53
-28.587
-3.697
30.246
72.957
123.477
180.536
241.671
303.961
364.158
417.396
458.6
483.987
490.169
476.219
444.736
397.932
337.322
262.021
169.239
62.154
-48.149
-143.042
-203.708
-223.114
-207.302
-173.388
-139.642
-115.108
-100.571
-90.995
-81.59
-71.894
-63.826
-59.737
-59.931
-62.78
-66.048
-67.671
-66.884
-63.736
-58.508
-51.76
-44.123
-36.187
-28.633
-22.068
-16.736
-12.681
-9.813
-7.92
-6.814
-6.331
-6.288
-6.503
-6.842
-7.169
-7.347
-7.296
-6.955
-6.272
-5.231
-3.809
-1.994
0.196
2.715
5.518
8.559
11.799
15.211
18.752
22.366
25.994
29.565
33.032
36.363
39.532
42.523
45.322
47.919
50.322
52.55
54.614
56.524
58.284
59.893
61.359
62.692
63.902
65
65.99
66.876
67.665
68.359
68.962
69.475
69.895
70.219
70.447
70.581
70.626
70.584
70.461
70.26
69.988
69.652
69.258
68.812
68.318
67.781
67.207
66.602
65.971
65.319
64.652
63.975
63.294
62.614
61.942
61.282
60.639
60.02
59.43
58.874
58.359
57.89
57.472
57.11
56.811
56.578
56.415
56.327
56.315
56.381
56.526
56.751
57.053
57.432
57.886
58.411
59.005
59.663
60.383
61.158
61.984
62.856
63.768
64.713
65.686
66.678
67.684
68.695
69.705
70.705
71.688
72.647
73.572
74.456
75.291
76.07
76.786
77.431
78.001
78.488
78.89
79.202
79.422
79.548
79.578
79.513
79.353
79.1
78.755
78.322
77.803
77.202
76.524
75.773
74.954
74.073
73.134
72.143
71.106
70.03
68.92
67.783
66.625
65.452
64.272
63.089
61.91
60.74
59.586
58.451
57.339
56.256
55.202
54.181
53.194
52.243
51.328
50.448
49.603
48.792
48.012
47.261
46.538
45.839
45.161
44.502
43.858
43.226
42.602
41.985
41.369
40.753
40.133
39.505
38.866
38.213
37.542
36.851
36.136
35.395
34.625
33.825
32.992
32.125
31.222
30.282
29.305
28.29
27.236
26.144
25.015
23.849
22.646
21.407
20.134
18.828
17.488
16.115
14.711
13.275
11.808
10.31
8.782
7.223
5.634
4.015
2.367
0.689
-1.019
-2.755
-4.519
-6.312
-8.131
-9.977
-11.847
-13.74
-15.655
-17.589
-19.539
-21.503
-23.479
-25.462
-27.45
-29.439
-31.425
-33.404
-35.372
-37.323
-39.252
-41.152
-43.019
-44.845
-46.623
-48.348
-50.011
-51.605
-53.123
-54.558
-55.9
-57.143
-58.279
-59.3
-60.199
-60.971
-61.611
-62.113
-62.474
-62.692
-62.768
-62.701
-62.495
-62.15
-61.67
-61.06
-60.324
-59.468
-58.498
-57.422
-56.246
-54.983
-53.642
-52.237
-50.783
-49.292
-47.779
-46.259
-44.747
-43.261
-41.818
-40.433
-39.122
-37.902
-36.792
-35.818
-35
-34.346
-33.863
-33.555
-33.416
-33.442
-33.623
-33.935
-34.357
-34.87
-35.451
-36.094
-36.79
-37.526
-38.283
-39.031
-39.747
-40.429
-41.088
-41.742
-42.421
-43.151
-43.978
-44.987
-46.259
-47.871
-49.898
-52.372
-55.321
-58.773
-62.735
-67.232
-72.29
-77.896
-84.04
-90.692
-97.762
-105.217
-113.019
-120.952
-128.72
-135.868
-141.748
-145.863
-147.85
-147.263
-143.82
-137.57
-128.787
-118.406
-107.891
-98.448
-91.171
-86.973
-86.021
-87.916
-91.762
-95.333
-95.599
-89.742
-74.689
-47.915
-8.524
43.447
106.789
177.973
252.307
324.851
389.113
438.457
467.898
472.989
452.551
410.108
349.246
272.535
179.827
68.823
-57.086
-185.519
-295.664
-367.084
-391.438
-374.975
-336.937
-297.542
-267.386
-248.001
-233.75
-219.292
-203.952
-189.605
-179
-172.622
-168.731
-164.957
-158.985
-149.97
-138.129
-123.913
-108.091
-91.527
-74.995
-59.391
-45.584
-34.029
-24.898
-18.196
-13.732
-11.313
-10.767
-11.85
-14.292
-17.849
-22.232
-27.152
-32.379
-37.674
-42.831
-47.691
-52.079
-55.835
-58.864
-61.11
-62.543
-63.175
-63.02
-62.105
-60.493
-58.274
-55.572
-52.528
-49.276
-45.948
-42.649
-39.457
-36.45
-33.691
-31.221
-29.058
-27.212
-25.673
-24.436
-23.496
-22.837
-22.432
-22.247
-22.237
-22.36
-22.569
-22.828
-23.113
-23.404
-23.687
-23.955
-24.204
-24.437
-24.662
-24.881
-25.095
-25.304
-25.505
-25.701
-25.895
-26.089
-26.289
-26.495
-26.709
-26.929
-27.152
-27.376
-27.597
-27.807
-27.999
-28.169
-28.312
-28.424
-28.504
-28.549
-28.555
-28.521
-28.444
-28.321
-28.151
-27.93
-27.654
-27.321
-26.928
-26.474
-25.959
-25.38
-24.737
-24.031
-23.263
-22.432
-21.543
-20.596
-19.594
-18.54
-17.438
-16.293
-15.108
-13.889
-12.641
-11.368
-10.077
-8.772
-7.459
-6.143
-4.83
-3.526
-2.235
-0.965
0.28
1.493
2.67
3.805
4.892
5.926
6.903
7.82
8.671
9.453
10.164
10.801
11.363
11.849
12.259
12.593
12.852
13.038
13.153
13.201
13.183
13.103
12.964
12.77
12.524
12.229
11.889
11.508
11.091
10.641
10.162
9.659
9.135
8.594
8.041
7.478
6.909
6.338
5.768
5.202
4.644
4.096
3.561
3.04
2.537
2.051
1.584
1.136
0.707
0.296
-0.097
-0.474
-0.835
-1.181
-1.512
-1.831
-2.138
-2.434
-2.721
-3
-3.273
-3.542
-3.807
-4.069
-4.331
-4.594
-4.858
-5.124
-5.395
-5.672
-5.957
-6.252
-6.56
-6.883
-7.223
-7.582
-7.962
-8.366
-8.794
-9.249
-9.731
-10.242
-10.782
-11.354
-11.957
-12.593
-13.261
-13.963
-14.698
-15.466
-16.264
-17.094
-17.952
-18.837
-19.748
-20.682
-21.639
-22.614
-23.607
-24.611
-25.625
-26.644
-27.662
-28.672
-29.668
-30.644
-31.593
-32.506
-33.378
-34.199
-34.962
-35.658
-36.281
-36.821
-37.271
-37.621
-37.863
-37.992
-37.999
-37.879
-37.625
-37.234
-36.701
-36.024
-35.201
-34.23
-33.111
-31.843
-30.427
-28.865
-27.161
-25.318
-23.342
-21.241
-19.025
-16.707
-14.298
-11.813
-9.265
-6.669
-4.04
-1.393
1.259
3.902
6.521
9.099
11.615
14.05
16.387
18.611
20.705
22.655
24.444
26.062
27.507
28.772
29.846
30.713
31.347
31.731
31.861
31.733
31.351
30.722
29.852
28.763
27.497
26.089
24.573
22.97
21.285
19.545
17.796
16.096
14.512
13.09
11.841
10.779
9.916
9.243
8.735
8.334
7.947
7.49
6.883
6.054
4.936
3.423
1.412
-1.25
-4.782
-9.23
-14.481
-20.328
-26.402
-32.402
-38.229
-43.575
-47.942
-51.237
-53.603
-55.568
-58.208
-61.981
-66.562
-71.775
-77.493
-83.162
-88.178
-91.149
-89.644
-82.324
-69.123
-49.956
-24.8
6.247
43.291
85.856
132.346
181.641
233.802
287.168
337.934
384.409
425.182
460.147
493.396
520.721
531.955
520.033
475.462
399.673
303.452
190.736
68.764
-57.101
-183.826
-294.196
-371.283
-403.605
-382.623
-320.982
-241.142
-165.126
-118.341
-108.325
-127.576
-163.319
-194.025
-207.65
-203.802
-186.204
-164.272
-143.15
-122.381
-100.938
-76.954
-50.694
-24.074
1.333
23.858
42.148
55.211
62.584
64.908
63.483
59.303
53.087
45.441
37.154
29.413
23.086
18.234
14.331
10.945
7.936
5.364
3.311
1.55
-0.13
-1.629
-2.609
-2.751
-1.921
-0.171
2.317
5.433
9.086
13.124
17.359
21.573
25.605
29.366
32.811
35.92
38.677
41.059
43.051
44.657
45.888
46.766
47.331
47.613
47.653
47.496
47.187
46.779
46.317
45.826
45.325
44.822
44.323
43.835
43.365
42.909
42.47
42.047
41.64
41.252
40.885
40.538
40.209
39.895
39.594
39.31
39.046
38.806
38.596
38.421
38.287
38.201
38.17
38.198
38.287
38.439
38.658
38.944
39.3
39.726
40.222
40.789
41.427
42.136
42.917
43.766
44.683
45.665
46.709
47.813
48.973
50.186
51.449
52.756
54.105
55.49
56.906
58.349
59.81
61.285
62.766
64.246
65.717
67.171
68.599
69.995
71.349
72.653
73.899
75.079
76.185
77.21
78.146
78.988
79.728
80.363
80.886
81.294
81.583
81.751
81.795
81.714
81.506
81.171
80.709
80.12
79.406
78.569
77.612
76.538
75.352
74.059
72.665
71.178
69.603
67.95
66.227
64.443
62.607
60.729
58.819
56.887
54.942
52.996
51.056
49.133
47.233
45.365
43.536
41.753
40.02
38.344
36.728
35.176
33.693
32.282
30.943
29.68
28.494
27.384
26.351
25.393
24.508
23.696
22.951
22.272
21.653
21.091
20.579
20.113
19.686
19.291
18.923
18.573
18.236
17.904
17.571
17.23
16.876
16.503
16.106
15.68
15.222
14.728
14.194
13.617
12.994
12.323
11.602
10.829
10.002
9.122
8.187
7.197
6.152
5.053
3.901
2.696
1.439
0.133
-1.222
-2.622
-4.066
-5.549
-7.071
-8.626
-10.211
-11.824
-13.459
-15.114
-16.785
-18.468
-20.159
-21.856
-23.553
-25.247
-26.934
-28.608
-30.265
-31.899
-33.505
-35.077
-36.611
-38.1
-39.539
-40.921
-42.239
-43.488
-44.661
-45.751
-46.751
-47.652
-48.449
-49.134
-49.701
-50.143
-50.455
-50.63
-50.663
-50.549
-50.284
-49.864
-49.286
-48.546
-47.644
-46.579
-45.352
-43.966
-42.425
-40.734
-38.9
-36.932
-34.839
-32.632
-30.323
-27.923
-25.448
-22.911
-20.327
-17.709
-15.073
-12.438
-9.822
-7.244
-4.723
-2.277
0.072
2.303
4.395
6.327
8.088
9.665
11.043
12.203
13.122
13.784
14.184
14.317
14.176
13.761
13.074
12.132
10.976
9.643
8.162
6.559
4.84
3.025
1.145
-0.764
-2.664
-4.529
-6.365
-8.165
-9.903
-11.578
-13.203
-14.838
-16.612
-18.616
-20.917
-23.556
-26.54
-29.918
-33.748
-38.073
-42.952
-48.402
-54.386
-60.958
-68.191
-75.987
-84.217
-92.505
-100.166
-106.685
-111.607
-114.333
-114.572
-112.348
-107.64
-101.09
-94.185
-87.976
-83.51
-82.268
-83.154
-84.54
-87.176
-89.197
-90.947
-93.767
-90.387
-74.954
-41.691
15.54
90.635
174.542
258.832
335.231
401.429
457.489
501.958
529.054
533.986
511.797
457.438
373.389
261.303
126.919
-14.44
-146.185
-250.102
-314.604
-342.254
-345.898
-340.797
-335.176
-328.401
-312.75
-280.403
-234.455
-185.642
-146.088
-128.465
-133.429
-150.497
-169.906
-180.528
-178.53
-169.629
-157.47
-144.81
-132.45
-117.731
-100.369
-82.207
-64.703
-49.192
-36.255
-25.659
-17.496
-12.012
-9.004
-7.952
-8.348
-9.825
-12.184
-15.356
-19.16
-23.329
-27.655
-31.97
-36.14
-40.043
-43.519
-46.425
-48.659
-50.151
-50.879
-50.849
-50.09
-48.665
-46.664
-44.181
-41.32
-38.183
-34.882
-31.556
-28.313
-25.236
-22.395
-19.832
-17.58
-15.678
-14.134
-12.938
-12.076
-11.523
-11.247
-11.227
-11.43
-11.815
-12.336
-12.937
-13.577
-14.228
-14.868
-15.482
-16.061
-16.591
-17.071
-17.507
-17.904
-18.261
-18.578
-18.85
-19.077
-19.262
-19.41
-19.525
-19.611
-19.669
-19.699
-19.703
-19.68
-19.628
-19.547
-19.432
-19.282
-19.098
-18.881
-18.637
-18.366
-18.073
-17.761
-17.434
-17.094
-16.744
-16.383
-16.013
-15.632
-15.243
-14.845
-14.439
-14.024
-13.603
-13.174
-12.739
-12.3
-11.855
-11.405
-10.95
-10.492
-10.03
-9.565
-9.099
-8.633
-8.167
-7.703
-7.241
-6.783
-6.329
-5.878
-5.431
-4.988
-4.549
-4.115
-3.686
-3.263
-2.848
-2.441
-2.045
-1.663
-1.295
-0.943
-0.609
-0.294
0.001
0.274
0.526
0.755
0.962
1.146
1.308
1.449
1.569
1.669
1.753
1.82
1.874
1.916
1.949
1.974
1.994
2.011
2.027
2.043
2.063
2.088
2.121
2.164
2.221
2.293
2.382
2.492
2.623
2.777
2.955
3.158
3.386
3.638
3.914
4.214
4.535
4.877
5.236
5.61
5.997
6.392
6.793
7.195
7.596
7.99
8.374
8.744
9.097
9.429
9.735
10.012
10.256
10.464
10.63
10.753
10.827
10.849
10.817
10.727
10.577
10.366
10.091
9.753
9.35
8.882
8.351
7.756
7.1
6.385
5.614
4.789
3.914
2.993
2.03
1.03
-0.003
-1.064
-2.148
-3.25
-4.366
-5.489
-6.615
-7.736
-8.847
-9.942
-11.013
-12.056
-13.062
-14.027
-14.942
-15.802
-16.601
-17.333
-17.993
-18.573
-19.07
-19.477
-19.791
-20.007
-20.122
-20.131
-20.032
-19.823
-19.503
-19.072
-18.527
-17.869
-17.099
-16.217
-15.227
-14.13
-12.929
-11.628
-10.233
-8.751
-7.191
-5.559
-3.866
-2.12
-0.333
1.485
3.323
5.173
7.027
8.874
10.704
12.504
14.263
15.969
17.609
19.169
20.634
21.991
23.233
24.357
25.357
26.226
26.956
27.53
27.94
28.183
28.252
28.14
27.849
27.384
26.775
26.06
25.272
24.437
23.573
22.686
21.8
20.935
20.112
19.352
18.664
18.053
17.544
17.153
16.871
16.663
16.439
16.093
15.546
14.743
13.651
12.239
10.447
8.226
5.532
2.337
-1.338
-5.533
-10.363
-15.799
-21.654
-27.566
-32.905
-37.098
-39.759
-40.443
-38.776
-34.789
-28.836
-21.816
-15.203
-10.278
-8.008
-9.164
-13.853
-21.352
-30.292
-38.373
-42.33
-38.83
-24.737
2.615
43.085
93.86
151.929
214.409
281.806
356.693
436.143
510.264
561.708
572.345
534.77
455.342
352.36
245.195
146.096
59.313
-17.924
-86.448
-143.291
-185.339
-209.233
-214.55
-204.538
-183.043
-154.16
-122.979
-93.806
-69.069
-50.187
-37.559
-30.426
-28.1
-29.807
-33.246
-36.155
-37.537
-36.864
-34.214
-30.205
-24.95
-18.455
-11.714
-5.671
-0.731
2.802
5.088
6.512
7.073
6.725
5.797
4.573
3.285
2.224
1.417
0.817
0.494
0.479
0.765
1.369
2.25
3.327
4.572
5.954
7.432
8.992
10.585
12.156
13.653
15.015
16.203
17.198
17.986
18.557
18.907
19.03
18.937
18.654
18.199
17.588
16.833
15.941
14.93
13.822
12.638
11.396
10.112
8.797
7.463
6.125
4.793
3.475
2.177
0.905
-0.337
-1.54
-2.695
-3.796
-4.835
-5.807
-6.706
-7.527
-8.263
-8.912
-9.472
-9.941
-10.318
-10.603
-10.795
-10.896
-10.909
-10.836
-10.681
-10.447
-10.141
-9.766
-9.329
-8.836
-8.291
-7.7
-7.069
-6.404
-5.709
-4.99
-4.251
-3.498
-2.734
-1.964
-1.192
-0.42
0.347
1.106
1.855
2.59
3.309
4.01
4.689
5.345
5.977
6.584
7.163
7.715
8.239
8.737
9.208
9.654
10.075
10.474
10.85
11.206
11.543
11.862
12.165
12.453
12.726
12.986
13.233
13.467
13.69
13.9
14.097
14.282
14.453
14.61
14.753
14.882
14.996
15.096
15.182
15.255
15.316
15.364
15.401
15.428
15.444
15.451
15.449
15.438
15.419
15.392
15.358
15.317
15.269
15.215
15.154
15.088
15.016
14.938
14.855
14.768
14.677
14.583
14.486
14.388
14.29
14.193
14.096
14.001
13.907
13.814
13.722
13.629
13.534
13.437
13.335
13.225
13.108
12.979
12.837
12.68
12.503
12.305
12.084
11.835
11.557
11.247
10.902
10.521
10.101
9.642
9.14
8.594
8.002
7.363
6.676
5.939
5.152
4.312
3.421
2.479
1.486
0.443
-0.648
-1.784
-2.963
-4.18
-5.431
-6.711
-8.015
-9.337
-10.67
-12.008
-13.343
-14.667
-15.973
-17.253
-18.498
-19.7
-20.851
-21.943
-22.967
-23.917
-24.785
-25.562
-26.242
-26.818
-27.284
-27.634
-27.862
-27.963
-27.933
-27.767
-27.466
-27.027
-26.45
-25.736
-24.888
-23.911
-22.812
-21.597
-20.273
-18.851
-17.34
-15.753
-14.1
-12.39
-10.634
-8.844
-7.032
-5.211
-3.394
-1.593
0.176
1.899
3.556
5.131
6.609
7.985
9.247
10.385
11.382
12.218
12.882
13.369
13.671
13.781
13.696
13.418
12.969
12.394
11.732
11.02
10.279
9.526
8.789
8.1
7.493
6.994
6.604
6.32
6.149
6.101
6.158
6.283
6.381
6.318
5.987
5.289
4.141
2.512
0.35
-2.409
-5.818
-9.932
-14.777
-20.3
-26.477
-33.386
-40.98
-49.036
-57.12
-64.495
-70.416
-74.426
-76.266
-75.494
-71.877
-65.876
-58.264
-50.394
-44.245
-39.667
-35.738
-33.808
-33.63
-37.034
-45.527
-51.727
-49.471
-31.647
7.643
60.855
122.961
190.369
257.625
329.582
403.255
466.364
509.616
519.164
490.333
433.923
361.759
284.886
208.858
129.666
41.771
-51.246
-137.902
-205.214
-240.654
-244.248
-227.429
-201.208
-176.758
-158.481
-143.632
-130.907
-118.87
-107.643
-99.682
-95.229
-93.457
-93.112
-91.875
-88.61
-83.311
-76.115
-67.603
-58.415
-48.977
-39.872
-31.81
-25.147
-19.981
-16.262
-13.726
-12.141
-11.345
-11.137
-11.313
-11.716
-12.183
-12.556
-12.756
-12.722
-12.405
-11.787
-10.846
-9.564
-7.966
-6.104
-4.034
-1.81
0.521
2.925
5.357
7.761
10.075
12.236
14.2
15.942
17.446
18.703
19.704
20.45
20.955
21.245
21.343
21.266
21.024
20.628
20.091
19.433
18.671
17.821
16.896
15.905
14.859
13.769
12.642
11.485
10.301
9.09
7.857
6.609
5.351
4.09
2.832
1.582
0.347
-0.866
-2.053
-3.21
-4.332
-5.418
-6.464
-7.466
-8.423
-9.332
-10.19
-10.996
-11.747
-12.442
-13.078
-13.654
-14.171
-14.626
-15.019
-15.349
-15.615
-15.817
-15.954
-16.027
-16.036
-15.979
-15.859
-15.677
-15.434
-15.133
-14.777
-14.367
-13.909
-13.406
-12.861
-12.281
-11.668
-11.027
-10.363
-9.681
-8.986
-8.282
-7.576
-6.873
-6.178
-5.495
-4.832
-4.192
-3.581
-3.003
-2.463
-1.967
-1.517
-1.119
-0.776
-0.491
-0.269
-0.11
-0.018
0.007
-0.036
-0.146
-0.323
-0.564
-0.869
-1.232
-1.652
-2.124
-2.643
-3.206
-3.806
-4.438
-5.098
-5.778
-6.474
-7.179
-7.888
-8.595
-9.295
-9.983
-10.654
-11.302
-11.924
-12.515
-13.071
-13.587
-14.06
-14.488
-14.867
-15.195
-15.47
-15.692
-15.859
-15.972
-16.032
-16.039
-15.997
-15.906
-15.77
-15.591
-15.375
-15.124
-14.843
-14.537
-14.208
-13.863
-13.506
-13.141
-12.772
-12.404
-12.041
-11.687
-11.345
-11.019
-10.713
-10.43
-10.175
-9.95
-9.758
-9.604
-9.49
-9.42
-9.395
-9.42
-9.496
-9.625
-9.809
-10.05
-10.348
-10.704
-11.119
-11.592
-12.122
-12.71
-13.354
-14.052
-14.803
-15.604
-16.453
-17.347
-18.283
-19.258
-20.267
-21.307
-22.374
-23.462
-24.567
-25.684
-26.806
-27.927
-29.04
-30.138
-31.214
-32.258
-33.263
-34.218
-35.116
-35.949
-36.706
-37.379
-37.958
-38.436
-38.805
-39.057
-39.186
-39.186
-39.05
-38.775
-38.357
-37.794
-37.085
-36.23
-35.229
-34.085
-32.804
-31.391
-29.852
-28.195
-26.428
-24.56
-22.603
-20.565
-18.458
-16.293
-14.082
-11.843
-9.591
-7.344
-5.119
-2.934
-0.808
1.239
3.19
5.038
6.767
8.366
9.82
11.103
12.199
13.101
13.799
14.288
14.567
14.639
14.522
14.252
13.859
13.365
12.787
12.125
11.393
10.617
9.821
9.044
8.305
7.601
6.944
6.353
5.821
5.321
4.773
4.062
3.103
1.849
0.283
-1.617
-3.916
-6.681
-9.975
-13.864
-18.325
-23.36
-29.083
-35.467
-42.343
-49.425
-56.117
-61.844
-66.361
-69.297
-70.162
-68.932
-65.752
-61.07
-56.126
-51.932
-48.808
-47.359
-48.405
-51.66
-56.276
-61.324
-63.231
-58.429
-46.38
-25.103
4.798
39.274
79.337
126.715
184.198
257.24
344.44
435.309
512.95
560.11
564.862
528.55
465.68
389.614
310.057
226.595
129.304
16.583
-103.123
-210.832
-283.954
-313.941
-306.934
-279.69
-250.97
-229.537
-215.048
-202.954
-189.093
-173.141
-157.599
-145.087
-135.979
-129.221
-123.07
-115.309
-105.136
-92.726
-78.322
-62.681
-46.653
-30.811
-15.957
-3.023
7.531
15.499
20.846
23.864
24.811
23.884
21.412
17.75
13.239
8.289
3.221
-1.781
-6.541
-10.916
-14.77
-17.913
-20.221
-21.653
-22.201
-21.899
-20.787
-18.898
-16.316
-13.177
-9.65
-5.94
-2.211
1.439
4.929
8.197
11.184
13.817
16.055
17.904
19.37
20.464
21.191
21.548
21.557
21.272
20.754
20.075
19.286
18.416
17.491
16.534
15.562
14.591
13.623
12.649
11.665
10.677
9.691
8.72
7.768
6.834
5.916
5.016
4.134
3.275
2.443
1.639
0.869
0.139
-0.541
-1.161
-1.716
-2.202
-2.617
-2.96
-3.231
-3.43
-3.56
-3.624
-3.624
-3.564
-3.444
-3.266
-3.033
-2.747
-2.409
-2.022
-1.588
-1.11
-0.591
-0.037
0.551
1.166
1.804
2.459
3.126
3.797
4.467
5.13
5.778
6.406
7.006
7.573
8.102
8.587
9.026
9.416
9.753
10.037
10.268
10.446
10.572
10.646
10.67
10.644
10.57
10.449
10.282
10.071
9.817
9.521
9.184
8.81
8.399
7.954
7.478
6.974
6.446
5.898
5.334
4.759
4.176
3.592
3.01
2.434
1.868
1.315
0.777
0.255
-0.249
-0.736
-1.207
-1.663
-2.106
-2.538
-2.964
-3.386
-3.806
-4.229
-4.658
-5.096
-5.545
-6.008
-6.487
-6.985
-7.503
-8.044
-8.61
-9.203
-9.825
-10.478
-11.165
-11.887
-12.648
-13.447
-14.288
-15.171
-16.096
-17.064
-18.073
-19.124
-20.212
-21.337
-22.494
-23.68
-24.891
-26.122
-27.367
-28.622
-29.881
-31.141
-32.395
-33.64
-34.873
-36.09
-37.289
-38.467
-39.623
-40.755
-41.862
-42.942
-43.996
-45.022
-46.02
-46.989
-47.93
-48.843
-49.727
-50.583
-51.412
-52.216
-52.994
-53.748
-54.479
-55.189
-55.881
-56.555
-57.213
-57.857
-58.488
-59.108
-59.718
-60.318
-60.907
-61.484
-62.045
-62.59
-63.113
-63.611
-64.078
-64.509
-64.898
-65.239
-65.526
-65.752
-65.91
-65.994
-65.996
-65.911
-65.734
-65.457
-65.076
-64.587
-63.986
-63.271
-62.439
-61.489
-60.421
-59.234
-57.934
-56.522
-55.002
-53.38
-51.662
-49.856
-47.971
-46.014
-43.995
-41.924
-39.812
-37.675
-35.527
-33.385
-31.265
-29.183
-27.159
-25.211
-23.355
-21.601
-19.961
-18.447
-17.074
-15.867
-14.842
-14.007
-13.371
-12.939
-12.713
-12.691
-12.854
-13.167
-13.601
-14.131
-14.743
-15.438
-16.204
-17.018
-17.854
-18.676
-19.462
-20.214
-20.922
-21.565
-22.147
-22.698
-23.296
-24.063
-25.088
-26.421
-28.08
-30.077
-32.465
-35.313
-38.68
-42.623
-47.134
-52.22
-57.987
-64.439
-71.421
-78.613
-85.424
-91.267
-95.821
-98.707
-99.451
-97.96
-94.377
-89.248
-83.832
-79.115
-75.591
-73.978
-74.896
-78.169
-83.191
-88.484
-91.343
-89.663
-81.744
-65.08
-37.37
2.97
55.506
116.152
179.615
241.459
301.585
365.75
436.544
510.905
578.228
615.377
602.837
533.297
407.039
242.24
66.161
-101.288
-238.477
-329.491
-374.349
-373.251
-332.555
-271.456
-203.026
-142.293
-107.077
-98.284
-112.046
-139.088
-160.673
-169.014
-163.609
-147.441
-130.055
-115.647
-103.636
-93.135
-81.56
-68.271
-54.639
-41.536
-29.756
-19.829
-11.713
-5.407
-0.906
1.978
3.456
3.723
2.992
1.516
-0.471
-2.722
-4.988
-7.121
-9.008
-10.56
-11.711
-12.392
-12.527
-12.062
-10.977
-9.272
-6.984
-4.179
-0.953
2.557
6.213
9.886
13.457
16.85
20.014
22.918
25.545
27.889
29.937
31.673
33.093
34.192
34.973
35.46
35.687
35.706
35.571
35.327
35.011
34.648
34.257
33.846
33.423
32.979
32.511
32.028
31.536
31.05
30.584
30.139
29.717
29.312
28.913
28.532
28.179
27.865
27.611
27.402
27.223
27.087
26.992
26.943
26.971
27.013
26.998
27.029
27.168
27.493
28.134
28.942
29.706
30.499
31.358
32.039
32.427
32.229
31.048
29.251
27.262
25.066
22.785
20.717
18.941
17.916
18.242
19.477
21.157
23.234
25.417
27.494
29.508
31.099
31.63
31.244
30.401
29.21
27.891
26.905
24.937
21.007
17.049
13.449
13.27
20.235
30.013
39.863
45.688
41.717
32.988
23.81
17.126
17.817
22.441
27.451
32.041
34.058
34.733
35.672
36.576
37.645
38.77
39.624
40.415
41.312
42.257
43.236
44.267
45.343
46.448
47.574
48.688
49.754
50.785
51.792
52.763
53.698
54.593
55.442
56.25
57.021
57.75
58.436
59.079
59.68
60.241
60.762
61.245
61.691
62.101
62.477
62.821
63.133
63.415
63.667
63.89
64.085
64.251
64.39
64.503
64.589
64.65
64.685
64.695
64.681
64.643
64.58
64.492
64.378
64.237
64.069
63.871
63.642
63.379
63.079
62.741
62.362
61.937
61.466
60.945
60.372
59.745
59.063
58.327
57.535
56.688
55.788
54.837
53.835
52.787
51.694
50.561
49.392
48.19
46.961
45.711
44.444
43.168
41.888
40.611
39.346
38.098
36.877
35.691
34.548
33.458
32.432
31.479
30.607
29.827
29.148
28.578
28.125
27.794
27.591
27.519
27.583
27.783
28.122
28.598
29.211
29.958
30.836
31.841
32.967
34.205
35.544
36.974
38.483
40.059
41.688
43.357
45.053
46.763
48.479
50.189
51.879
53.532
55.133
56.665
58.116
59.47
60.713
61.834
62.824
63.68
64.4
64.981
65.414
65.686
65.774
65.666
65.352
64.83
64.1
63.165
62.037
60.736
59.296
57.745
56.105
54.394
52.628
50.833
49.041
47.294
45.644
44.137
42.813
41.687
40.766
40.039
39.495
39.124
38.881
38.698
38.503
38.211
37.725
36.98
35.872
34.197
31.878
28.954
25.593
22.27
19.475
17.514
16.804
17.805
20.48
24.498
29.075
32.561
33.506
30.96
23.817
11.462
-5.42
-25.428
-46.086
-63.387
-73.695
-73.902
-60.555
-31.304
14.088
74.554
147.279
227.321
309.52
388.433
457.549
511.104
545.271
557.512
546.791
514.149
461.852
393.513
314.603
231.068
148.058
70.316
2.379
-52.302
-91.792
-115.708
-125.469
-123.608
-112.68
-95.478
-75.532
-56.272
-40.048
-28.137
-20.691
-17.055
-16.542
-18.337
-21.033
-23.055
-23.429
-21.783
-18.315
-13.599
-8.117
-2.266
3.396
8.238
11.867
14.128
15.082
14.972
14.005
12.323
10.093
7.5
4.694
1.83
-0.947
-3.567
-5.97
-8.101
-9.938
-11.449
-12.61
-13.434
-13.956
-14.215
-14.257
-14.119
-13.825
-13.41
-12.922
-12.412
-11.941
-11.548
-11.254
-11.077
-11.026
-11.107
-11.326
-11.672
-12.123
-12.66
-13.273
-13.95
-14.69
-15.482
-16.312
-17.168
-18.038
-18.916
-19.795
-20.671
-21.537
-22.391
-23.229
-24.053
-24.865
-25.665
-26.449
-27.217
-27.964
-28.688
-29.387
-30.058
-30.698
-31.305
-31.877
-32.413
-32.914
-33.378
-33.806
-34.196
-34.549
-34.865
-35.144
-35.387
-35.593
-35.763
-35.897
-35.995
-36.059
-36.088
-36.082
-36.043
-35.971
-35.868
-35.734
-35.571
-35.381
-35.165
-34.926
-34.665
-34.386
-34.09
-33.78
-33.458
-33.128
-32.792
-32.453
-32.114
-31.777
-31.445
-31.121
-30.807
-30.505
-30.218
-29.947
-29.696
-29.467
-29.262
-29.084
-28.936
-28.82
-28.739
-28.696
-28.692
-28.73
-28.812
-28.938
-29.111
-29.33
-29.598
-29.914
-30.28
-30.696
-31.163
-31.681
-32.249
-32.867
-33.534
-34.25
-35.012
-35.82
-36.672
-37.567
-38.502
-39.477
-40.489
-41.536
-42.617
-43.728
-44.868
-46.033
-47.219
-48.424
-49.644
-50.876
-52.117
-53.365
-54.615
-55.866
-57.114
-58.357
-59.591
-60.813
-62.02
-63.209
-64.376
-65.519
-66.635
-67.721
-68.775
-69.796
-70.781
-71.729
-72.638
-73.506
-74.333
-75.117
-75.857
-76.552
-77.203
-77.81
-78.373
-78.894
-79.374
-79.813
-80.214
-80.578
-80.907
-81.202
-81.466
-81.7
-81.908
-82.091
-82.252
-82.396
-82.525
-82.644
-82.754
-82.859
-82.962
-83.066
-83.172
-83.283
-83.4
-83.525
-83.658
-83.802
-83.956
-84.12
-84.295
-84.479
-84.67
-84.866
-85.065
-85.263
-85.456
-85.639
-85.811
-85.965
-86.098
-86.204
-86.278
-86.314
-86.307
-86.251
-86.139
-85.964
-85.721
-85.403
-85.006
-84.525
-83.956
-83.295
-82.542
-81.696
-80.757
-79.726
-78.606
-77.399
-76.108
-74.738
-73.292
-71.774
-70.191
-68.547
-66.851
-65.113
-63.342
-61.55
-59.747
-57.946
-56.16
-54.4
-52.673
-50.986
-49.352
-47.781
-46.296
-44.916
-43.654
-42.522
-41.534
-40.695
-40.007
-39.458
-39.016
-38.656
-38.351
-38.083
-37.846
-37.627
-37.406
-37.16
-36.857
-36.473
-36.004
-35.44
-34.766
-33.987
-33.136
-32.296
-31.595
-31.152
-31.053
-31.353
-32.115
-33.418
-35.353
-38.01
-41.465
-45.733
-50.865
-56.984
-64.083
-72.028
-80.492
-88.846
-96.483
-102.952
-107.688
-110.127
-110.121
-107.751
-103.648
-99.191
-95.484
-93.365
-93.861
-97.556
-104.098
-112.699
-121.469
-127.063
-126.434
-116.59
-93.851
-56.937
-7.645
52.352
119.783
194.105
280.364
378.224
481.066
572.85
628.002
630.347
577.789
484.195
374.462
264.98
161.83
61.228
-41.328
-138.799
-219.543
-270.145
-286.23
-277.061
-253.844
-228.764
-207.681
-188.61
-171.3
-155.232
-140.837
-130.93
-125.679
-123.646
-123.5
-122.959
-120.273
-115.063
-107.309
-97.388
-86.133
-74.296
-62.511
-51.49
-41.846
-33.825
-27.474
-22.683
-19.182
-16.74
-15.177
-14.284
-13.847
-13.684
-13.611
-13.459
-13.132
-12.555
-11.667
-10.443
-8.868
-6.939
-4.695
-2.193
0.516
3.379
6.352
9.4
12.467
15.49
18.403
21.134
23.636
25.881
27.851
29.536
30.938
32.063
32.934
33.582
34.034
34.309
34.424
34.39
34.226
33.953
33.59
33.156
32.667
32.135
31.573
30.992
30.399
29.799
29.195
28.587
27.978
27.371
26.771
26.183
25.609
25.051
24.513
23.997
23.504
23.033
22.585
22.156
21.746
21.354
20.978
20.617
20.269
19.935
19.612
19.301
19.001
18.712
18.435
18.169
17.915
17.676
17.454
17.249
17.065
16.903
16.768
16.661
16.586
16.544
16.537
16.569
16.641
16.755
16.912
17.114
17.363
17.658
18.001
18.392
18.831
19.316
19.847
20.42
21.034
21.686
22.372
23.088
23.83
24.591
25.367
26.15
26.936
27.715
28.481
29.225
29.941
30.62
31.256
31.84
32.366
32.829
33.221
33.539
33.778
33.933
34.003
33.984
33.877
33.68
33.394
33.021
32.564
32.025
31.408
30.719
29.962
29.143
28.269
27.346
26.382
25.384
24.359
23.318
22.268
21.218
20.177
19.153
18.156
17.193
16.271
15.399
14.583
13.828
13.141
12.524
11.983
11.519
11.135
10.831
10.606
10.458
10.386
10.385
10.451
10.578
10.762
10.996
11.274
11.587
11.93
12.294
12.672
13.054
13.434
13.802
14.15
14.471
14.755
14.996
15.186
15.317
15.385
15.382
15.304
15.144
14.899
14.565
14.139
13.62
13.007
12.299
11.499
10.609
9.632
8.572
7.434
6.224
4.946
3.608
2.216
0.778
-0.701
-2.211
-3.745
-5.293
-6.848
-8.4
-9.941
-11.462
-12.955
-14.411
-15.823
-17.181
-18.479
-19.708
-20.86
-21.927
-22.902
-23.777
-24.545
-25.202
-25.742
-26.161
-26.455
-26.624
-26.664
-26.577
-26.361
-26.016
-25.544
-24.945
-24.219
-23.371
-22.408
-21.335
-20.159
-18.889
-17.528
-16.093
-14.6
-13.046
-11.432
-9.76
-8.027
-6.252
-4.467
-2.663
-0.834
0.962
2.674
4.264
5.678
6.94
8.106
9.127
9.925
10.684
11.617
12.583
13.579
14.619
15.217
16.629
20.078
23.803
27.274
27.265
19.93
9.585
-0.888
-7.212
-3.533
4.992
14.015
20.575
19.756
15.157
10.397
6.289
5.032
5.351
5.583
5.995
6.31
6.536
6.911
7.113
6.855
6.098
4.733
2.637
-0.319
-4.321
-9.403
-15.424
-22.129
-29.128
-36.061
-42.722
-48.744
-53.566
-57.061
-59.405
-61.102
-63.185
-66.259
-70.317
-75.605
-82.476
-90.547
-98.982
-106.12
-109.318
-106.812
-97.71
-80.604
-54.023
-17.294
29.713
85.569
147.326
212.798
280.025
345.586
405.278
454.974
490.509
508.987
509.072
489.083
447.702
387.475
312.702
226.43
134.131
38.317
-59.455
-149.289
-223.645
-275.63
-298.737
-298.914
-282.951
-257.175
-230.312
-203.609
-177.771
-154.87
-134.562
-118.851
-108.854
-102.903
-99.564
-96.373
-92.413
-88.185
-81.974
-73.242
-59.15
-36.929
-11.815
12.395
30.448
36.135
34.506
29.759
24.916
25.25
27.575
28.677
28.193
24.228
18.297
12.337
6.297
0.567
-4.792
-9.952
-14.548
-18.268
-21.082
-22.965
-23.892
-23.888
-23.001
-21.296
-18.896
-15.968
-12.647
-9.069
-5.384
-1.71
1.865
5.251
8.376
11.192
13.669
15.79
17.558
18.979
20.053
20.797
21.237
21.411
21.365
21.148
20.811
20.396
19.932
19.444
18.949
18.459
17.978
17.508
17.043
16.581
16.128
15.684
15.256
14.845
14.451
14.074
13.71
13.361
13.026
12.71
12.413
12.142
11.9
11.693
11.528
11.409
11.34
11.322
11.352
11.43
11.557
11.729
11.944
12.197
12.485
12.806
13.163
13.558
13.991
14.461
14.958
15.481
16.044
16.636
17.228
17.798
18.32
18.791
19.246
19.687
20.069
20.422
20.829
21.353
22.068
22.976
23.96
24.991
26.188
27.412
28.23
28.565
28.537
28.089
27.71
26.451
21.627
13.965
5.872
1.544
8.665
26.358
47.016
62.918
63.12
47.481
26.237
7.261
-0.772
3.211
11.53
19.608
24.16
24.385
23.435
22.638
21.915
21.363
20.501
19.239
18.002
16.909
15.89
14.962
14.144
13.422
12.781
12.18
11.551
10.875
10.188
9.501
8.814
8.128
7.445
6.766
6.105
5.464
4.841
4.235
3.645
3.073
2.518
1.981
1.463
0.963
0.48
0.015
-0.434
-0.867
-1.285
-1.688
-2.078
-2.455
-2.821
-3.176
-3.52
-3.857
-4.185
-4.507
-4.825
-5.14
-5.456
-5.774
-6.098
-6.43
-6.773
-7.131
-7.505
-7.899
-8.313
-8.751
-9.213
-9.7
-10.215
-10.758
-11.329
-11.928
-12.557
-13.214
-13.899
-14.612
-15.351
-16.115
-16.904
-17.715
-18.549
-19.402
-20.274
-21.161
-22.061
-22.972
-23.888
-24.806
-25.719
-26.622
-27.511
-28.377
-29.216
-30.019
-30.782
-31.496
-32.156
-32.756
-33.288
-33.747
-34.126
-34.42
-34.624
-34.734
-34.744
-34.651
-34.451
-34.142
-33.722
-33.189
-32.542
-31.777
-30.896
-29.897
-28.783
-27.553
-26.212
-24.761
-23.209
-21.563
-19.833
-18.029
-16.16
-14.238
-12.277
-10.287
-8.28
-6.266
-4.254
-2.256
-0.286
1.64
3.508
5.308
7.026
8.65
10.168
11.567
12.843
13.994
15.016
15.897
16.623
17.169
17.521
17.676
17.626
17.373
16.92
16.278
15.47
14.537
13.512
12.424
11.292
10.127
8.957
7.827
6.778
5.86
5.1
4.515
4.123
3.925
3.898
3.996
4.149
4.27
4.283
4.104
3.64
2.807
1.494
-0.386
-2.946
-6.347
-10.603
-15.613
-21.182
-26.942
-32.55
-37.81
-42.357
-45.688
-47.694
-48.52
-48.629
-48.948
-50.006
-51.823
-54.651
-58.863
-64.228
-70.07
-74.937
-76.541
-73.304
-64.327
-48.337
-23.969
9.629
52.738
104.273
161.875
223.42
286.563
347.993
403.969
450.19
482.182
496.773
491.668
466.629
424.417
367.769
298.841
216.824
119.009
8.692
-103.535
-199.905
-262.32
-284.595
-273.125
-244.139
-214.986
-194.003
-181.541
-172.95
-163.766
-153.515
-144.004
-137.326
-133.702
-131.668
-129.211
-124.471
-116.849
-106.573
-94.077
-80.085
-65.386
-50.656
-36.629
-23.97
-12.977
-3.767
3.634
9.308
13.342
15.833
16.953
16.911
15.889
14.106
11.804
9.191
6.493
3.889
1.483
-0.644
-2.432
-3.845
-4.834
-5.333
-5.31
-4.752
-3.659
-2.068
-0.023
2.396
5.068
7.859
10.633
13.284
15.753
18.005
20.017
21.774
23.261
24.458
25.36
25.97
26.282
26.303
26.04
25.512
24.76
23.839
22.81
21.718
20.593
19.454
18.316
17.191
16.088
15.013
13.963
12.94
11.949
10.999
10.1
9.258
8.472
7.739
7.053
6.41
5.81
5.252
4.734
4.256
3.821
3.432
3.096
2.814
2.59
2.421
2.308
2.248
2.241
2.284
2.374
2.51
2.688
2.907
3.166
3.464
3.799
4.169
4.572
5.006
5.469
5.959
6.474
7.01
7.565
8.137
8.724
9.322
9.929
10.543
11.159
11.775
12.387
12.991
13.582
14.156
14.708
15.236
15.734
16.199
16.629
17.019
17.367
17.671
17.928
18.136
18.293
18.398
18.449
18.446
18.388
18.276
18.109
17.889
17.617
17.294
16.923
16.505
16.044
15.542
15.003
14.432
13.832
13.208
12.566
11.91
11.246
10.579
9.915
9.26
8.618
7.994
7.393
6.819
6.275
5.764
5.289
4.852
4.453
4.094
3.772
3.489
3.242
3.029
2.849
2.698
2.572
2.469
2.384
2.313
2.251
2.194
2.136
2.072
1.996
1.903
1.787
1.643
1.465
1.249
0.988
0.679
0.316
-0.104
-0.585
-1.129
-1.74
-2.418
-3.165
-3.98
-4.863
-5.813
-6.827
-7.903
-9.038
-10.229
-11.472
-12.763
-14.097
-15.471
-16.879
-18.316
-19.779
-21.262
-22.76
-24.269
-25.784
-27.301
-28.816
-30.325
-31.823
-33.307
-34.774
-36.219
-37.639
-39.032
-40.393
-41.721
-43.012
-44.264
-45.475
-46.644
-47.77
-48.85
-49.884
-50.87
-51.808
-52.696
-53.533
-54.317
-55.047
-55.721
-56.339
-56.897
-57.393
-57.824
-58.188
-58.482
-58.703
-58.848
-58.913
-58.895
-58.792
-58.601
-58.321
-57.949
-57.485
-56.928
-56.279
-55.543
-54.72
-53.814
-52.828
-51.768
-50.639
-49.446
-48.192
-46.882
-45.521
-44.116
-42.676
-41.209
-39.724
-38.231
-36.743
-35.274
-33.837
-32.441
-31.091
-29.796
-28.565
-27.414
-26.365
-25.429
-24.615
-23.934
-23.392
-22.994
-22.737
-22.597
-22.536
-22.526
-22.541
-22.568
-22.604
-22.628
-22.614
-22.54
-22.375
-22.115
-21.762
-21.3
-20.723
-20.047
-19.321
-18.651
-18.163
-17.951
-18.082
-18.593
-19.526
-20.957
-22.959
-25.603
-28.934
-32.924
-37.588
-43.011
-49.141
-55.795
-62.594
-68.879
-74.071
-77.777
-79.56
-79.106
-76.394
-71.584
-65.381
-59.007
-53.461
-49.581
-48.036
-48.795
-51.291
-54.578
-56.702
-55.105
-47.389
-31.071
-4.137
34.106
83.386
142.517
208.686
277.995
345.901
407.024
456.038
488.586
501.28
491.763
459.522
405.938
334.167
248.958
156.074
61.908
-27.458
-106.271
-169.475
-215.655
-245.309
-257.895
-255.545
-238.683
-207.493
-170.522
-134.59
-106.348
-92.683
-88.818
-89.815
-91.683
-88.402
-81.663
-73.281
-63.283
-53.676
-43.605
-32.222
-20.458
-8.652
2.376
11.621
18.915
24.233
27.575
29.169
29.229
27.934
25.493
22.139
18.116
13.694
9.148
4.665
0.365
-3.671
-7.365
-10.623
-13.358
-15.494
-16.998
-17.868
-18.109
-17.733
-16.767
-15.275
-13.366
-11.197
-8.928
-6.669
-4.492
-2.44
-0.547
1.146
2.605
3.81
4.759
5.451
5.884
6.051
5.95
5.598
5.035
4.317
3.507
2.651
1.777
0.908
0.059
-0.755
-1.522
-2.241
-2.917
-3.55
-4.136
-4.666
-5.131
-5.525
-5.85
-6.11
-6.309
-6.451
-6.538
-6.572
-6.553
-6.481
-6.356
-6.174
-5.93
-5.62
-5.246
-4.809
-4.312
-3.759
-3.155
-2.504
-1.812
-1.086
-0.332
0.446
1.243
2.054
2.875
3.701
4.528
5.353
6.172
6.983
7.782
8.567
9.336
10.089
10.823
11.537
12.232
12.906
13.558
14.189
14.798
15.383
15.945
16.482
16.994
17.483
17.947
18.389
18.808
19.207
19.588
19.953
20.303
20.639
20.964
21.279
21.584
21.88
22.168
22.447
22.716
22.974
23.22
23.452
23.667
23.862
24.036
24.186
24.308
24.401
24.462
24.49
24.483
24.439
24.358
24.24
24.082
23.886
23.651
23.377
23.064
22.711
22.32
21.889
21.42
20.912
20.364
19.779
19.156
18.495
17.799
17.068
16.305
15.512
14.692
13.849
12.985
12.104
11.21
10.307
9.399
8.488
7.577
6.67
5.768
4.872
3.986
3.108
2.24
1.383
0.534
-0.305
-1.135
-1.958
-2.773
-3.584
-4.389
-5.19
-5.987
-6.781
-7.573
-8.363
-9.151
-9.938
-10.724
-11.511
-12.3
-13.091
-13.887
-14.689
-15.497
-16.312
-17.135
-17.966
-18.805
-19.651
-20.502
-21.355
-22.21
-23.063
-23.911
-24.75
-25.574
-26.381
-27.165
-27.92
-28.642
-29.324
-29.96
-30.545
-31.074
-31.543
-31.947
-32.28
-32.54
-32.722
-32.823
-32.841
-32.771
-32.612
-32.359
-32.013
-31.572
-31.035
-30.403
-29.676
-28.856
-27.949
-26.961
-25.896
-24.762
-23.564
-22.312
-21.015
-19.68
-18.315
-16.925
-15.52
-14.108
-12.702
-11.311
-9.948
-8.624
-7.348
-6.135
-4.995
-3.935
-2.958
-2.067
-1.267
-0.571
0.005
0.45
0.755
0.915
0.924
0.784
0.505
0.108
-0.37
-0.897
-1.447
-2.005
-2.562
-3.098
-3.592
-4.019
-4.349
-4.571
-4.675
-4.642
-4.463
-4.157
-3.781
-3.422
-3.194
-3.174
-3.412
-3.967
-4.904
-6.302
-8.248
-10.795
-13.943
-17.74
-22.294
-27.611
-33.612
-39.998
-46.213
-51.791
-56.388
-59.538
-60.783
-59.979
-57.165
-52.976
-48.729
-45.286
-43.233
-43.652
-47.125
-53.313
-61.928
-70.113
-73.745
-71.603
-61.298
-42.72
-18.466
14.078
56.177
110.647
184.477
276.047
379.054
480.204
556.235
591.212
579.197
526.068
449.221
362.273
271.006
173.406
67.685
-39.25
-135.396
-204.897
-241.06
-250.744
-242.732
-228.012
-212.12
-192.395
-169.359
-144.622
-120.571
-100.708
-84.181
-70.682
-61.296
-58.009
-65.79
-82.338
-99.694
-110.371
-104.561
-82.721
-54.946
-29.082
-13.802
-10.841
-13.429
-17.415
-19.657
-19.063
-18.299
-18.433
-19.174
-20.42
-21.563
-22.343
-23.013
-23.617
-24.028
-24.213
-24.168
-23.852
-23.244
-22.341
-21.123
-19.622
-17.917
-16.055
-14.062
-11.984
-9.869
-7.776
-5.775
-3.904
-2.184
-0.628
0.753
1.953
2.972
3.824
4.533
5.115
5.581
5.939
6.192
6.35
6.426
6.433
6.38
6.277
6.129
5.945
5.732
5.493
5.229
4.939
4.622
4.28
3.917
3.536
3.143
2.743
2.344
1.955
1.585
1.24
0.921
0.633
0.38
0.163
-0.013
-0.147
-0.242
-0.29
-0.28
-0.201
-0.036
0.217
0.55
0.959
1.442
1.994
2.606
3.266
3.95
4.658
5.403
6.2
7.069
8.012
9.017
10.073
11.165
12.29
13.458
14.669
15.92
17.226
18.619
20.143
21.861
23.787
25.893
28.151
30.518
32.962
35.459
37.969
40.461
42.907
45.281
47.575
49.776
51.838
53.693
55.247
56.39
57.07
57.272
56.995
56.271
55.145
53.68
51.977
50.124
48.178
46.18
44.149
42.113
40.134
38.288
36.669
35.393
34.538
34.173
34.351
35.073
36.308
37.986
39.984
42.203
44.579
47.066
49.639
52.268
54.908
57.516
60.046
62.431
64.608
66.5
68.036
69.193
69.979
70.438
70.65
70.678
70.56
70.33
70.007
69.601
69.129
68.586
67.965
67.272
66.525
65.757
65.001
64.267
63.548
62.823
62.056
61.22
60.294
59.254
58.083
56.775
55.325
53.741
52.04
50.23
48.313
46.288
44.15
41.902
39.549
37.099
34.56
31.943
29.256
26.514
23.728
20.908
18.062
15.193
12.307
9.407
6.501
3.596
0.699
-2.18
-5.031
-7.844
-10.606
-13.306
-15.933
-18.477
-20.927
-23.273
-25.505
-27.614
-29.592
-31.431
-33.124
-34.662
-36.04
-37.252
-38.295
-39.164
-39.857
-40.371
-40.706
-40.86
-40.833
-40.627
-40.243
-39.683
-38.951
-38.051
-36.991
-35.781
-34.43
-32.952
-31.357
-29.661
-27.878
-26.023
-24.109
-22.148
-20.154
-18.141
-16.125
-14.123
-12.15
-10.221
-8.349
-6.548
-4.829
-3.204
-1.68
-0.264
1.037
2.211
3.241
4.104
4.78
5.258
5.531
5.595
5.455
5.116
4.595
3.925
3.137
2.259
1.322
0.355
-0.615
-1.55
-2.404
-3.132
-3.685
-4.038
-4.2
-4.173
-3.982
-3.663
-3.238
-2.795
-2.449
-2.297
-2.474
-3.104
-4.265
-6.097
-8.778
-12.334
-16.712
-21.721
-26.917
-31.948
-36.554
-40.306
-42.879
-44.286
-44.735
-44.867
-45.717
-47.966
-52.134
-58.925
-68.473
-80.119
-92.591
-103.735
-110.976
-112.17
-105.162
-87.546
-57.808
-15.826
37.207
98.751
165.514
233.859
299.376
356.757
400.951
428.297
436.557
424.616
392.517
341.737
275.349
198.236
116.231
34.556
-42.127
-109.246
-163.133
-201.747
-224.631
-233.212
-230.245
-218.482
-200.832
-180.808
-161.619
-145.391
-133.241
-125.172
-120.404
-118.159
-117.55
-117.256
-115.975
-112.994
-108.151
-101.726
-94.292
-86.333
-78.235
-70.525
-63.742
-58.171
-53.886
-50.785
-48.619
-47.194
-46.374
-45.971
-45.796
-45.677
-45.441
-44.988
-44.29
-43.311
-42.034
-40.457
-38.568
-36.386
-33.967
-31.358
-28.608
-25.771
-22.883
-19.994
-17.164
-14.453
-11.928
-9.636
-7.602
-5.844
-4.373
-3.19
-2.298
-1.684
-1.323
-1.195
-1.281
-1.566
-2.037
-2.679
-3.469
-4.385
-5.407
-6.515
-7.694
-8.927
-10.199
-11.495
-12.801
-14.109
-15.408
-16.689
-17.941
-19.15
-20.306
-21.399
-22.418
-23.355
-24.203
-24.954
-25.604
-26.15
-26.59
-26.923
-27.148
-27.265
-27.275
-27.179
-26.979
-26.679
-26.281
-25.789
-25.206
-24.538
-23.79
-22.966
-22.072
-21.114
-20.099
-19.031
-17.919
-16.767
-15.583
-14.373
-13.143
-11.9
-10.649
-9.396
-8.146
-6.905
-5.675
-4.462
-3.268
-2.096
-0.947
0.176
1.272
2.339
3.377
4.385
5.362
6.305
7.216
8.091
8.931
9.735
10.502
11.23
11.92
12.571
13.182
13.753
14.283
14.772
15.221
15.629
15.997
16.324
16.613
16.862
17.072
17.245
17.38
17.477
17.537
17.561
17.548
17.5
17.417
17.299
17.149
16.968
16.759
16.522
16.262
15.98
15.68
15.365
15.039
14.704
14.365
14.026
13.689
13.359
13.039
12.732
12.441
12.169
11.918
11.69
11.487
11.31
11.161
11.039
10.947
10.885
10.853
10.851
10.879
10.937
11.024
11.137
11.274
11.433
11.61
11.802
12.004
12.212
12.422
12.627
12.823
13.003
13.163
13.295
13.393
13.451
13.465
13.427
13.334
13.18
12.961
12.675
12.317
11.886
11.379
10.794
10.129
9.384
8.558
7.65
6.663
5.596
4.452
3.235
1.948
0.597
-0.813
-2.275
-3.783
-5.33
-6.906
-8.503
-10.111
-11.721
-13.322
-14.904
-16.455
-17.965
-19.422
-20.817
-22.141
-23.383
-24.534
-25.588
-26.535
-27.37
-28.087
-28.68
-29.142
-29.471
-29.662
-29.713
-29.623
-29.392
-29.019
-28.508
-27.866
-27.101
-26.219
-25.231
-24.148
-22.98
-21.741
-20.443
-19.096
-17.711
-16.299
-14.876
-13.456
-12.058
-10.696
-9.384
-8.137
-6.972
-5.901
-4.934
-4.077
-3.334
-2.715
-2.236
-1.92
-1.786
-1.848
-2.114
-2.59
-3.272
-4.148
-5.195
-6.374
-7.643
-8.969
-10.326
-11.692
-13.042
-14.341
-15.544
-16.607
-17.495
-18.182
-18.646
-18.886
-18.937
-18.862
-18.758
-18.746
-18.913
-19.356
-20.185
-21.508
-23.445
-26.125
-29.621
-34.027
-39.496
-46.028
-53.506
-61.663
-69.934
-77.764
-84.757
-90.364
-94.017
-95.622
-95.309
-93.608
-91.791
-90.792
-91.13
-93.61
-98.677
-105.776
-113.926
-121.247
-124.656
-121.685
-110.192
-87.566
-52.089
-3.398
57.937
129.699
207.985
288.789
367.252
437.382
493.753
531.621
546.958
537.476
502.653
443.054
363.099
268.923
164.869
57.676
-48.945
-152.324
-242.167
-313.312
-361.432
-379.701
-375.037
-352.415
-315.213
-277.186
-242.478
-214.794
-200.675
-193.794
-190.74
-189.173
-182.817
-173.289
-161.779
-147.684
-133.03
-117.068
-99.004
-79.906
-60.32
-41.339
-24.346
-9.805
2.154
11.481
18.387
23.065
25.656
26.356
25.426
23.114
19.679
15.398
10.465
5.055
-0.622
-6.341
-11.829
-16.834
-21.202
-24.843
-27.707
-29.76
-30.972
-31.329
-30.876
-29.7
-27.908
-25.611
-22.887
-19.814
-16.488
-13.029
-9.585
-6.279
-3.181
-0.335
2.235
4.503
6.446
8.058
9.364
10.402
11.206
11.804
12.211
12.448
12.55
12.56
12.527
12.486
12.455
12.445
12.466
12.523
12.621
12.758
12.917
13.086
13.26
13.434
13.611
13.789
13.961
14.121
14.267
14.395
14.506
14.6
14.676
14.737
14.783
14.819
14.85
14.88
14.912
14.946
14.984
15.026
15.075
15.132
15.197
15.271
15.357
15.458
15.577
15.717
15.88
16.07
16.288
16.538
16.819
17.135
17.483
17.866
18.282
18.731
19.211
19.719
20.254
20.813
21.393
21.992
22.606
23.233
23.868
24.509
25.153
25.798
26.439
27.074
27.7
28.313
28.912
29.493
30.052
30.586
31.091
31.563
31.997
32.39
32.738
33.037
33.285
33.479
33.617
33.697
33.719
33.682
33.587
33.433
33.223
32.957
32.636
32.264
31.843
31.373
30.86
30.304
29.709
29.076
28.41
27.712
26.985
26.23
25.452
24.651
23.831
22.995
22.147
21.289
20.425
19.559
18.695
17.836
16.987
16.149
15.326
14.522
13.737
12.975
12.236
11.523
10.835
10.175
9.541
8.934
8.353
7.797
7.264
6.755
6.266
5.796
5.344
4.907
4.486
4.078
3.682
3.295
2.917
2.546
2.178
1.812
1.446
1.075
0.699
0.313
-0.084
-0.495
-0.922
-1.369
-1.835
-2.324
-2.836
-3.374
-3.937
-4.528
-5.145
-5.788
-6.455
-7.146
-7.858
-8.587
-9.331
-10.086
-10.848
-11.613
-12.378
-13.139
-13.891
-14.631
-15.353
-16.054
-16.729
-17.372
-17.98
-18.546
-19.066
-19.537
-19.953
-20.311
-20.606
-20.835
-20.994
-21.082
-21.094
-21.028
-20.882
-20.654
-20.343
-19.949
-19.472
-18.914
-18.277
-17.566
-16.787
-15.95
-15.059
-14.124
-13.153
-12.153
-11.135
-10.104
-9.065
-8.022
-6.983
-5.955
-4.949
-3.972
-3.033
-2.14
-1.3
-0.521
0.191
0.834
1.409
1.912
2.337
2.672
2.893
2.984
2.934
2.737
2.392
1.906
1.292
0.576
-0.202
-1.008
-1.807
-2.579
-3.305
-3.959
-4.51
-4.923
-5.153
-5.167
-4.943
-4.465
-3.754
-2.851
-1.813
-0.733
0.293
1.165
1.763
1.982
1.711
0.823
-0.76
-3.15
-6.499
-10.811
-16.006
-21.89
-28.022
-33.987
-39.457
-43.927
-46.978
-48.595
-48.942
-48.581
-48.496
-49.328
-51.593
-56.007
-62.707
-71.06
-79.903
-87.195
-90.509
-87.972
-77.611
-57.239
-25.607
17.495
71.099
132.798
199.607
268.412
335.137
394.926
443.147
475.704
489.769
483.831
457.231
410.64
346.614
269.345
184.192
97.11
13.646
-60.896
-121.798
-166.145
-192.9
-202.727
-197.966
-181.996
-158.498
-131.736
-105.882
-83.67
-66.616
-55.244
-49.013
-46.863
-47.54
-49.275
-50.248
-49.52
-46.794
-42.181
-36.207
-29.405
-22.237
-15.371
-9.482
-4.883
-1.646
0.34
1.352
1.588
1.18
0.336
-0.747
-1.897
-2.94
-3.789
-4.423
-4.806
-4.918
-4.749
-4.279
-3.526
-2.541
-1.367
-0.049
1.372
2.873
4.412
5.941
7.406
8.746
9.919
10.902
11.678
12.238
12.577
12.693
12.596
12.314
11.866
11.269
10.538
9.68
8.709
7.644
6.501
5.299
4.05
2.766
1.457
0.134
-1.193
-2.517
-3.834
-5.141
-6.433
-7.705
-8.948
-10.156
-11.323
-12.443
-13.51
-14.517
-15.459
-16.333
-17.135
-17.865
-18.519
-19.097
-19.598
-20.021
-20.368
-20.638
-20.833
-20.954
-21.002
-20.979
-20.887
-20.727
-20.501
-20.21
-19.856
-19.44
-18.965
-18.431
-17.841
-17.196
-16.499
-15.751
-14.957
-14.117
-13.236
-12.316
-11.361
-10.375
-9.361
-8.322
-7.262
-6.185
-5.094
-3.991
-2.879
-1.762
-0.64
0.483
1.605
2.725
3.839
4.947
6.044
7.129
8.199
9.251
10.281
11.287
12.265
13.213
14.127
15.004
15.843
16.64
17.393
18.1
18.76
19.373
19.936
20.452
20.919
21.339
21.712
22.04
22.325
22.566
22.767
22.926
23.047
23.128
23.172
23.179
23.149
23.084
22.985
22.852
22.688
22.494
22.272
22.022
21.747
21.449
21.129
20.79
20.433
20.06
19.674
19.276
18.866
18.446
18.017
17.578
17.128
16.668
16.196
15.71
15.211
14.696
14.165
13.618
13.053
12.472
11.873
11.257
10.624
9.974
9.308
8.627
7.93
7.219
6.494
5.756
5.005
4.243
3.468
2.682
1.883
1.072
0.248
-0.588
-1.436
-2.296
-3.166
-4.044
-4.927
-5.813
-6.698
-7.579
-8.453
-9.316
-10.165
-10.995
-11.803
-12.586
-13.341
-14.062
-14.747
-15.392
-15.994
-16.55
-17.057
-17.513
-17.914
-18.258
-18.542
-18.764
-18.92
-19.008
-19.022
-18.96
-18.82
-18.597
-18.291
-17.901
-17.426
-16.869
-16.233
-15.522
-14.74
-13.893
-12.986
-12.025
-11.016
-9.964
-8.875
-7.753
-6.606
-5.443
-4.273
-3.103
-1.944
-0.806
0.297
1.354
2.355
3.296
4.17
4.968
5.674
6.265
6.727
7.05
7.228
7.248
7.107
6.807
6.367
5.832
5.244
4.638
4.042
3.47
2.945
2.506
2.194
2.044
2.071
2.266
2.627
3.168
3.876
4.704
5.554
6.262
6.686
6.717
6.258
5.243
3.584
1.152
-2.162
-6.435
-11.692
-17.866
-24.92
-32.902
-41.721
-51.118
-60.657
-69.606
-77.312
-83.474
-87.818
-90.034
-90.039
-87.846
-83.811
-79.041
-74.63
-70.979
-68.095
-65.57
-62.585
-58.358
-51.568
-39.826
-20.622
7.734
45.841
93.095
148.128
209.089
272.814
334.837
390.178
433.698
461.376
470.762
459.753
428.731
381.762
321.799
251.663
173.892
86.979
-3.947
-86.91
-151.768
-187.417
-192.863
-179.219
-156.794
-136.122
-122.175
-112.057
-104.082
-96.859
-90.161
-86.256
-85.394
-86.594
-88.62
-89.332
-87.702
-83.756
-77.64
-69.954
-61.371
-52.384
-43.615
-35.71
-28.99
-23.572
-19.438
-16.402
-14.302
-13.001
-12.328
-12.125
-12.258
-12.604
-13.036
-13.434
-13.702
-13.764
-13.576
-13.119
-12.381
-11.362
-10.089
-8.61
-6.966
-5.205
-3.36
-1.456
0.466
2.356
4.158
5.807
7.261
8.495
9.49
10.236
10.731
10.979
10.998
10.815
10.451
9.923
9.243
8.419
7.467
6.406
5.252
4.023
2.736
1.402
0.037
-1.347
-2.739
-4.132
-5.52
-6.899
-8.263
-9.606
-10.92
-12.198
-13.435
-14.623
-15.758
-16.833
-17.845
-18.79
-19.667
-20.474
-21.211
-21.876
-22.469
-22.99
-23.438
-23.813
-24.115
-24.344
-24.499
-24.583
-24.595
-24.537
-24.411
-24.219
-23.961
-23.641
-23.261
-22.824
-22.331
-21.785
-21.189
-20.546
-19.859
-19.132
-18.366
-17.565
-16.732
-15.871
-14.983
-14.072
-13.14
-12.188
-11.221
-10.241
-9.251
-8.254
-7.255
-6.258
-5.265
-4.283
-3.316
-2.366
-1.439
-0.539
0.331
1.168
1.967
2.727
3.443
4.114
4.738
5.313
5.837
6.311
6.732
7.102
7.42
7.686
7.9
8.063
8.175
8.238
8.252
8.219
8.141
8.021
7.861
7.664
7.436
7.178
6.897
6.595
6.278
5.95
5.615
5.278
4.943
4.614
4.294
3.988
3.698
3.426
3.174
2.945
2.738
2.554
2.393
2.255
2.139
2.044
1.97
1.914
1.874
1.849
1.836
1.832
1.833
1.835
1.835
1.826
1.805
1.765
1.702
1.61
1.484
1.318
1.106
0.842
0.523
0.143
-0.302
-0.816
-1.403
-2.066
-2.806
-3.624
-4.522
-5.498
-6.553
-7.684
-8.889
-10.164
-11.507
-12.913
-14.377
-15.894
-17.456
-19.058
-20.691
-22.348
-24.02
-25.696
-27.368
-29.025
-30.657
-32.253
-33.802
-35.294
-36.717
-38.061
-39.316
-40.472
-41.52
-42.451
-43.255
-43.927
-44.46
-44.85
-45.091
-45.179
-45.115
-44.899
-44.535
-44.025
-43.374
-42.587
-41.671
-40.635
-39.485
-38.228
-36.87
-35.42
-33.888
-32.286
-30.627
-28.926
-27.197
-25.454
-23.715
-21.996
-20.309
-18.664
-17.071
-15.541
-14.094
-12.753
-11.538
-10.462
-9.539
-8.777
-8.181
-7.744
-7.446
-7.253
-7.133
-7.059
-7.016
-6.991
-6.969
-6.921
-6.817
-6.632
-6.351
-5.968
-5.47
-4.849
-4.133
-3.386
-2.704
-2.207
-1.982
-2.084
-2.581
-3.545
-5.052
-7.203
-10.072
-13.668
-18.037
-23.256
-29.297
-36.052
-43.213
-50.221
-56.563
-61.827
-65.557
-67.426
-67.373
-65.511
-62.468
-59.323
-56.948
-56.113
-57.505
-61.153
-66.484
-72.534
-77.363
-78.392
-73.306
-59.632
-35.149
0.927
48.318
105.903
170.826
239.029
306.118
366.711
415.216
447.617
460.882
452.813
423.513
374.953
310.23
234.34
153.437
72.852
-2.193
-66.47
-116.821
-151.867
-171.365
-177.032
-171.923
-158.879
-141.303
-123.224
-107.26
-94.935
-87.126
-83.394
-82.679
-84.11
-86.334
-87.603
-86.994
-84.093
-78.83
-71.823
-63.729
-55.029
-46.395
-38.517
-31.76
-26.327
-22.252
-19.334
-17.411
-16.35
-15.959
-16.076
-16.566
-17.298
-18.156
-19.014
-19.762
-20.318
-20.626
-20.655
-20.387
-19.81
-18.935
-17.806
-16.464
-14.956
-13.323
-11.587
-9.79
-7.984
-6.225
-4.58
-3.096
-1.8
-0.713
0.15
0.785
1.189
1.373
1.366
1.184
0.843
0.354
-0.275
-1.03
-1.893
-2.847
-3.876
-4.963
-6.099
-7.27
-8.463
-9.669
-10.878
-12.087
-13.289
-14.479
-15.647
-16.785
-17.882
-18.931
-19.923
-20.848
-21.697
-22.463
-23.139
-23.72
-24.199
-24.574
-24.84
-24.993
-25.032
-24.955
-24.762
-24.451
-24.025
-23.484
-22.831
-22.069
-21.202
-20.233
-19.167
-18.01
-16.767
-15.444
-14.048
-12.585
-11.064
-9.491
-7.875
-6.224
-4.548
-2.855
-1.153
0.547
2.235
3.904
5.542
7.143
8.697
10.196
11.633
13
14.291
15.5
16.621
17.651
18.585
19.42
20.154
20.785
21.312
21.735
22.054
22.27
22.385
22.401
22.321
22.149
21.887
21.542
21.118
20.621
20.056
19.431
18.753
18.028
17.264
16.47
15.653
14.822
13.983
13.146
12.317
11.504
10.712
9.95
9.221
8.531
7.884
7.285
6.735
6.237
5.793
5.403
5.067
4.786
4.558
4.381
4.253
4.171
4.133
4.134
4.171
4.24
4.334
4.45
4.581
4.722
4.865
5.006
5.137
5.252
5.345
5.409
5.438
5.427
5.372
5.266
5.107
4.89
4.613
4.274
3.871
3.404
2.873
2.279
1.624
0.909
0.138
-0.687
-1.56
-2.48
-3.44
-4.437
-5.465
-6.519
-7.594
-8.682
-9.779
-10.877
-11.968
-13.045
-14.101
-15.129
-16.121
-17.069
-17.966
-18.806
-19.582
-20.288
-20.918
-21.465
-21.925
-22.293
-22.567
-22.743
-22.819
-22.794
-22.667
-22.439
-22.111
-21.684
-21.161
-20.544
-19.835
-19.038
-18.157
-17.196
-16.161
-15.057
-13.889
-12.666
-11.398
-10.096
-8.77
-7.429
-6.086
-4.752
-3.439
-2.156
-0.911
0.289
1.435
2.517
3.527
4.452
5.285
6.018
6.642
7.15
7.538
7.804
7.952
7.985
7.899
7.691
7.348
6.861
6.225
5.438
4.5
3.422
2.221
0.923
-0.433
-1.814
-3.193
-4.544
-5.847
-7.081
-8.216
-9.227
-10.086
-10.759
-11.222
-11.456
-11.46
-11.278
-10.967
-10.597
-10.253
-9.992
-9.88
-10.017
-10.492
-11.396
-12.83
-14.825
-17.445
-20.848
-25.041
-29.907
-35.189
-40.323
-44.784
-48.27
-50.343
-50.54
-48.844
-45.429
-40.883
-36.572
-33.578
-32.552
-34.354
-39.42
-47.188
-56.721
-66.275
-72.774
-73.495
-66.092
-47.734
-16.548
27.699
84.492
151.888
225.793
301.819
375.322
440.021
489.949
520.572
527.454
509.335
469.456
410.831
336.787
247.934
140.348
16.182
-115.632
-237.098
-324.002
-364.992
-360.253
-321.808
-269.954
-213.88
-157.706
-105.144
-59.201
-29.413
-23.394
-39.038
-66.034
-91.401
-106.05
-108.609
-105.006
-100.277
-95.486
-89.889
-81.25
-69.242
-56.143
-43.795
-33.106
-24.463
-17.783
-12.966
-10.086
-8.818
-8.394
-8.296
-8.297
-8.262
-8.177
-7.996
-7.57
-6.861
-5.947
-4.855
-3.601
-2.193
-0.603
1.158
3.048
5.03
7.065
9.105
11.107
13.02
14.784
16.363
17.731
18.87
19.773
20.434
20.855
21.055
21.056
20.879
20.542
20.065
19.466
18.77
17.999
17.175
16.316
15.438
14.557
13.686
12.838
12.022
11.246
10.515
9.831
9.2
8.626
8.113
7.665
7.284
6.974
6.736
6.572
6.484
6.47
6.528
6.654
6.847
7.103
7.416
7.783
8.197
8.654
9.149
9.675
10.229
10.804
11.394
11.995
12.602
13.211
13.816
14.414
15.001
15.575
16.131
16.669
17.187
17.682
18.154
18.602
19.024
19.421
19.793
20.138
20.458
20.754
21.026
21.277
21.508
21.721
21.919
22.104
22.277
22.441
22.597
22.748
22.893
23.035
23.176
23.315
23.454
23.593
23.733
23.873
24.014
24.155
24.295
24.433
24.568
24.698
24.822
24.938
25.046
25.143
25.228
25.299
25.356
25.396
25.417
25.418
25.397
25.351
25.28
25.182
25.056
24.901
24.717
24.502
24.257
23.982
23.676
23.339
22.972
22.575
22.149
21.694
21.211
20.701
20.165
19.605
19.021
18.416
17.79
17.144
16.48
15.799
15.101
14.388
13.66
12.919
12.166
11.403
10.629
9.845
9.053
8.253
7.444
6.626
5.801
4.966
4.122
3.267
2.402
1.526
0.638
-0.262
-1.177
-2.105
-3.049
-4.009
-4.985
-5.978
-6.988
-8.017
-9.063
-10.126
-11.205
-12.3
-13.409
-14.531
-15.663
-16.804
-17.951
-19.1
-20.25
-21.397
-22.536
-23.663
-24.772
-25.86
-26.921
-27.949
-28.938
-29.881
-30.772
-31.605
-32.374
-33.072
-33.691
-34.226
-34.669
-35.016
-35.26
-35.397
-35.42
-35.325
-35.11
-34.773
-34.311
-33.723
-33.01
-32.17
-31.21
-30.132
-28.942
-27.644
-26.247
-24.758
-23.188
-21.544
-19.835
-18.07
-16.257
-14.409
-12.537
-10.654
-8.771
-6.903
-5.066
-3.276
-1.549
0.104
1.675
3.156
4.535
5.8
6.929
7.914
8.746
9.415
9.912
10.231
10.373
10.359
10.223
9.991
9.682
9.309
8.873
8.393
7.893
7.39
6.906
6.444
6
5.598
5.252
4.954
4.668
4.3
3.741
2.914
1.774
0.299
-1.534
-3.786
-6.521
-9.789
-13.624
-17.989
-22.914
-28.529
-34.822
-41.633
-48.59
-55.001
-60.231
-63.88
-65.461
-64.53
-61.095
-55.358
-48.179
-41.232
-35.937
-33.495
-35.077
-41.076
-50.883
-63.522
-76.789
-87.024
-90.83
-84.41
-63.618
-27.677
20.805
79.367
143.893
214.012
295.801
388.411
484.446
568.307
614.257
606.516
543.841
435.824
302.291
161.493
24.904
-96.639
-191.357
-252.2
-276.273
-269.464
-247.852
-223.09
-201.615
-184.562
-166.392
-145.995
-125.585
-107.241
-94.449
-87.734
-85.057
-84.877
-85.208
-84.201
-81.303
-76.364
-69.485
-61.318
-52.534
-43.627
-35.225
-27.966
-22.119
-17.736
-14.73
-12.801
-11.708
-11.29
-11.319
-11.581
-11.902
-12.103
-12.082
-11.816
-11.272
-10.431
-9.29
-7.832
-6.076
-4.075
-1.877
0.469
2.916
5.431
7.967
10.464
12.863
15.095
17.115
18.898
20.426
21.691
22.689
23.419
23.895
24.144
24.189
24.05
23.742
23.277
22.672
21.95
21.135
20.247
19.304
18.322
17.317
16.302
15.29
14.292
13.315
12.363
11.443
10.564
9.733
8.96
8.252
7.614
7.053
6.575
6.183
5.881
5.668
5.546
5.513
5.568
5.709
5.934
6.239
6.619
7.069
7.585
8.16
8.788
9.46
10.171
10.912
11.676
12.457
13.246
14.037
14.824
15.6
16.36
17.098
17.811
18.492
19.137
19.744
20.309
20.829
21.302
21.726
22.101
22.426
22.704
22.933
23.118
23.258
23.359
23.422
23.45
23.448
23.42
23.369
23.3
23.217
23.125
23.028
22.93
22.836
22.748
22.67
22.605
22.555
22.522
22.508
22.514
22.541
22.589
22.66
22.752
22.866
23
23.154
23.326
23.513
23.714
23.926
24.145
24.369
24.593
24.814
25.03
25.235
25.426
25.6
25.754
25.882
25.983
26.054
26.09
26.09
26.051
25.973
25.853
25.691
25.487
25.24
24.95
24.619
24.245
23.831
23.376
22.882
22.35
21.782
21.179
20.544
19.879
19.186
18.469
17.73
16.971
16.197
15.409
14.61
13.805
12.995
12.183
11.372
10.566
9.766
8.976
8.195
7.428
6.673
5.934
5.21
4.501
3.809
3.135
2.478
1.842
1.227
0.634
0.065
-0.479
-0.995
-1.482
-1.938
-2.362
-2.751
-3.103
-3.416
-3.687
-3.914
-4.095
-4.227
-4.309
-4.339
-4.314
-4.233
-4.096
-3.902
-3.648
-3.333
-2.956
-2.515
-2.01
-1.44
-0.804
-0.101
0.666
1.492
2.374
3.306
4.281
5.294
6.336
7.4
8.478
9.567
10.661
11.754
12.836
13.896
14.924
15.911
16.848
17.727
18.537
19.271
19.924
20.497
20.99
21.397
21.704
21.889
21.936
21.835
21.573
21.148
20.557
19.798
18.887
17.852
16.718
15.509
14.242
12.92
11.559
10.192
8.851
7.587
6.436
5.414
4.543
3.828
3.252
2.785
2.376
1.946
1.427
0.739
-0.214
-1.513
-3.258
-5.547
-8.5
-12.303
-17.047
-22.668
-28.97
-35.562
-41.999
-47.944
-52.997
-56.597
-58.48
-58.797
-58.11
-57.55
-58.3
-61.117
-66.672
-75.699
-88.317
-103.676
-120.006
-134.527
-144.102
-145.986
-137.601
-116.271
-80.14
-29.11
35.419
110.715
192.669
276.442
356.763
427.576
482.7
517.586
529.263
515.364
476.853
418.401
343.257
255.009
157.203
49.372
-62.035
-163.336
-243.771
-293.412
-310.567
-304.579
-282.7
-249.24
-210.037
-169.942
-135.792
-117.557
-116.391
-125.178
-136.529
-141.05
-136.013
-126.591
-115.684
-105.931
-98.265
-90.057
-80.682
-70.922
-61.262
-52.867
-46.518
-42.16
-39.763
-39.301
-40.485
-43.008
-46.641
-51.081
-56.013
-61.209
-66.421
-71.43
-76.14
-80.471
-84.331
-87.649
-90.331
-92.282
-93.484
-93.938
-93.65
-92.674
-91.074
-88.948
-86.455
-83.74
-80.925
-78.104
-75.325
-72.622
-70.031
-67.58
-65.288
-63.181
-61.267
-59.551
-58.05
-56.762
-55.674
-54.759
-53.964
-53.238
-52.549
-51.874
-51.201
-50.525
-49.841
-49.15
-48.462
-47.784
-47.119
-46.466
-45.82
-45.176
-44.535
-43.9
-43.278
-42.675
-42.095
-41.539
-41.012
-40.513
-40.041
-39.593
-39.161
-38.74
-38.326
-37.916
-37.507
-37.099
-36.69
-36.277
-35.861
-35.441
-35.015
-34.581
-34.135
-33.677
-33.204
-32.714
-32.208
-31.683
-31.138
-30.575
-29.992
-29.391
-28.77
-28.13
-27.471
-26.795
-26.101
-25.39
-24.665
-23.926
-23.176
-22.417
-21.653
-20.886
-20.119
-19.355
-18.598
-17.85
-17.114
-16.393
-15.691
-15.009
-14.35
-13.719
-13.118
-12.549
-12.015
-11.518
-11.06
-10.64
-10.261
-9.923
-9.625
-9.369
-9.153
-8.977
-8.841
-8.744
-8.683
-8.657
-8.663
-8.699
-8.76
-8.842
-8.943
-9.058
-9.182
-9.313
-9.446
-9.577
-9.703
-9.82
-9.925
-10.014
-10.084
-10.132
-10.157
-10.157
-10.131
-10.079
-10.001
-9.899
-9.773
-9.625
-9.459
-9.276
-9.079
-8.871
-8.656
-8.437
-8.219
-8.007
-7.805
-7.621
-7.458
-7.324
-7.223
-7.162
-7.145
-7.178
-7.266
-7.412
-7.62
-7.894
-8.236
-8.65
-9.136
-9.695
-10.327
-11.031
-11.804
-12.642
-13.541
-14.496
-15.5
-16.545
-17.625
-18.732
-19.858
-20.994
-22.129
-23.256
-24.364
-25.443
-26.483
-27.472
-28.399
-29.255
-30.029
-30.71
-31.291
-31.76
-32.111
-32.336
-32.428
-32.383
-32.196
-31.862
-31.38
-30.75
-29.972
-29.05
-27.988
-26.79
-25.465
-24.023
-22.477
-20.842
-19.131
-17.36
-15.546
-13.704
-11.853
-10.008
-8.182
-6.388
-4.644
-2.965
-1.37
0.123
1.499
2.739
3.827
4.748
5.491
6.047
6.412
6.583
6.549
6.3
5.819
5.094
4.12
2.897
1.426
-0.277
-2.19
-4.28
-6.501
-8.814
-11.189
-13.596
-16.015
-18.416
-20.759
-23.008
-25.125
-27.066
-28.803
-30.309
-31.573
-32.636
-33.546
-34.367
-35.18
-36.025
-36.948
-38.022
-39.299
-40.866
-42.814
-45.17
-48.014
-51.48
-55.543
-60.082
-64.825
-69.229
-72.849
-75.386
-76.378
-75.493
-72.809
-68.603
-63.621
-59.024
-55.509
-53.567
-53.861
-56.509
-60.911
-65.961
-69.647
-69.585
-64.061
-51.358
-29.52
2.641
45.43
98.056
158.3
223.369
290.456
355.838
414.89
462.999
495.898
510.456
504.908
478.195
430.317
363.363
281.318
189.455
93.759
-0.048
-86.463
-159.974
-216.144
-252.895
-270.236
-269.822
-254.32
-226.705
-190.863
-151.714
-113.98
-80.719
-53.476
-32.78
-18.739
-11.461
-10.096
-12.486
-16.005
-18.921
-20.517
-20.634
-19.178
-15.731
-10.249
-3.574
2.91
8.204
11.969
14.286
15.407
15.335
14.037
11.831
9.318
7.003
5.158
3.847
2.968
2.503
2.526
3.057
4.076
5.549
7.411
9.597
12.055
14.712
17.489
20.301
23.049
25.647
28.046
30.22
32.175
33.927
35.469
36.792
37.878
38.706
39.273
39.597
39.701
39.61
39.345
38.933
38.405
37.798
37.135
36.426
35.668
34.857
33.996
33.093
32.156
31.196
30.221
29.235
28.245
27.257
26.278
25.313
24.363
23.428
22.512
21.619
20.756
19.932
19.152
18.421
17.743
17.123
16.566
16.075
15.65
15.294
15.005
14.785
14.634
14.551
14.536
14.587
14.704
14.883
15.123
15.423
15.78
16.19
16.653
17.164
17.721
18.322
18.963
19.641
20.352
21.093
21.86
22.65
23.457
24.277
25.106
25.937
26.767
27.588
28.397
29.186
29.952
30.688
31.391
32.055
32.677
33.251
33.775
34.246
34.659
35.014
35.306
35.535
35.7
35.798
35.829
35.792
35.687
35.514
35.273
34.966
34.595
34.161
33.667
33.116
32.513
31.861
31.166
30.433
29.667
28.873
28.059
27.231
26.394
25.556
24.722
23.899
23.092
22.306
21.548
20.82
20.127
19.471
18.856
18.283
17.754
17.27
16.831
16.436
16.086
15.778
15.51
15.279
15.083
14.916
14.774
14.652
14.543
14.441
14.34
14.233
14.113
13.971
13.8
13.594
13.344
13.044
12.686
12.263
11.771
11.204
10.558
9.828
9.012
8.108
7.115
6.032
4.861
3.604
2.262
0.839
-0.659
-2.227
-3.859
-5.547
-7.284
-9.059
-10.865
-12.689
-14.522
-16.353
-18.168
-19.958
-21.708
-23.406
-25.041
-26.6
-28.072
-29.445
-30.708
-31.851
-32.865
-33.741
-34.471
-35.051
-35.472
-35.732
-35.827
-35.756
-35.52
-35.119
-34.557
-33.837
-32.967
-31.956
-30.813
-29.547
-28.171
-26.698
-25.14
-23.511
-21.824
-20.092
-18.328
-16.547
-14.767
-13.004
-11.273
-9.592
-7.98
-6.452
-5.027
-3.716
-2.523
-1.458
-0.527
0.257
0.875
1.317
1.578
1.651
1.534
1.23
0.747
0.114
-0.622
-1.424
-2.256
-3.096
-3.937
-4.758
-5.538
-6.25
-6.855
-7.337
-7.692
-7.895
-7.928
-7.798
-7.532
-7.222
-7.001
-6.972
-7.214
-7.77
-8.667
-9.966
-11.725
-14.013
-16.898
-20.371
-24.471
-29.303
-34.844
-40.948
-47.263
-53.126
-57.898
-61.092
-62.158
-60.724
-56.8
-50.64
-43.149
-35.753
-29.621
-25.85
-25.423
-28.505
-34.547
-42.338
-49.324
-52.372
-48.664
-35.177
-9.211
30.548
84.322
150.918
226.78
307.27
387.483
461.315
522.118
564.118
582.218
574.373
543.123
491.41
421.346
331.908
220.558
91.422
-42.853
-160.698
-240.789
-274.613
-267.69
-237.763
-204.143
-177.035
-157.917
-142.403
-126.356
-109.635
-94.652
-84.339
-79.138
-77.315
-76.441
-73.768
-68.039
-59.22
-47.456
-33.437
-18.054
-2.085
13.52
27.819
40.346
50.924
59.485
66.139
70.999
74.157
75.81
76.197
75.502
73.906
71.604
68.794
65.696
62.551
59.527
56.729
54.249
52.14
50.469
49.322
48.748
48.76
49.359
50.521
52.205
54.369
56.923
59.742
62.703
65.671
68.551
71.296
73.863
76.224
78.356
80.224
81.814
83.13
84.174
84.949
85.463
85.718
85.741
85.577
85.275
84.886
84.45
83.986
83.512
83.042
82.586
82.152
81.742
81.351
80.976
80.622
80.294
79.999
79.739
79.51
79.306
79.123
78.958
78.81
78.677
78.557
78.453
78.366
78.3
78.26
78.25
78.27
78.322
78.403
78.515
78.656
78.824
79.019
79.237
79.478
79.741
80.026
80.332
80.658
81.003
81.364
81.74
82.13
82.53
82.938
83.351
83.767
84.184
84.598
85.007
85.408
85.798
86.175
86.535
86.874
87.19
87.478
87.735
87.958
88.144
88.291
88.396
88.457
88.472
88.44
88.358
88.227
88.043
87.808
87.52
87.179
86.786
86.341
85.845
85.299
84.707
84.07
83.391
82.673
81.919
81.133
80.32
79.482
78.624
77.752
76.869
75.979
75.089
74.202
73.324
72.458
71.609
70.782
69.979
69.205
68.463
67.755
67.083
66.449
65.856
65.303
64.791
64.32
63.891
63.502
63.151
62.838
62.56
62.314
62.098
61.908
61.741
61.594
61.46
61.338
61.223
61.109
60.993
60.871
60.737
60.587
60.417
60.221
59.997
59.74
59.446
59.113
58.737
58.317
57.85
57.336
56.773
56.161
55.5
54.791
54.033
53.227
52.375
51.479
50.541
49.563
48.549
47.502
46.426
45.325
44.204
43.068
41.921
40.768
39.614
38.466
37.329
36.21
35.114
34.047
33.018
32.031
31.095
30.213
29.393
28.638
27.955
27.348
26.822
26.38
26.026
25.763
25.596
25.528
25.559
25.691
25.926
26.264
26.704
27.244
27.879
28.606
29.416
30.305
31.266
32.291
33.372
34.501
35.672
36.878
38.113
39.368
40.628
41.883
43.119
44.325
45.489
46.601
47.646
48.617
49.51
50.32
51.037
51.645
52.12
52.436
52.58
52.538
52.301
51.871
51.253
50.463
49.536
48.501
47.384
46.203
44.961
43.671
42.357
41.052
39.801
38.638
37.58
36.649
35.853
35.158
34.515
33.839
33.01
31.958
30.614
28.885
26.7
23.964
20.556
16.42
11.459
5.507
-1.437
-9.269
-17.751
-26.322
-34.434
-41.726
-47.678
-51.797
-54.098
-54.798
-54.559
-54.778
-56.512
-60.351
-67.008
-76.752
-88.836
-102.054
-114.313
-122.343
-123.451
-115.387
-95.728
-63.02
-17.182
40.958
109.118
183.398
259.794
333.67
399.655
453.176
490.121
507.061
502.23
475.09
427.579
365.116
291.862
210.981
124.762
31.947
-61.635
-144.164
-205.708
-235.25
-232.809
-210.35
-178.746
-149.773
-129.281
-114.251
-102.915
-93.736
-86.192
-82.569
-83.084
-86.277
-90.377
-93.112
-93.401
-91.293
-87.097
-81.347
-74.641
-67.566
-60.82
-55.053
-50.572
-47.419
-45.47
-44.501
-44.32
-44.766
-45.659
-46.823
-48.133
-49.446
-50.619
-51.627
-52.45
-53.061
-53.479
-53.661
-53.532
-53.16
-52.666
-51.918
-50.748
-49.329
-47.677
-45.795
-44.197
-41.701
-37.169
-32.367
-27.845
-26.79
-33.002
-42.301
-51.898
-57.624
-53.746
-45.297
-36.548
-30.421
-31.761
-37.087
-42.869
-48.31
-51.252
-52.926
-54.919
-56.915
-59.105
-61.372
-63.385
-65.348
-67.428
-69.562
-71.727
-73.936
-76.174
-78.421
-80.663
-82.859
-84.967
-86.994
-88.95
-90.826
-92.619
-94.327
-95.944
-97.474
-98.921
-100.282
-101.557
-102.747
-103.854
-104.88
-105.832
-106.711
-107.524
-108.275
-108.969
-109.612
-110.21
-110.769
-111.296
-111.797
-112.279
-112.748
-113.211
-113.676
-114.149
-114.636
-115.143
-115.676
-116.239
-116.837
-117.472
-118.149
-118.868
-119.632
-120.443
-121.3
-122.204
-123.155
-124.153
-125.196
-126.283
-127.413
-128.583
-129.79
-131.032
-132.307
-133.61
-134.939
-136.291
-137.663
-139.05
-140.449
-141.857
-143.269
-144.682
-146.091
-147.494
-148.886
-150.265
-151.629
-152.974
-154.299
-155.603
-156.885
-158.145
-159.381
-160.594
-161.784
-162.953
-164.099
-165.226
-166.334
-167.425
-168.501
-169.564
-170.615
-171.658
-172.693
-173.723
-174.751
-175.777
-176.804
-177.835
-178.872
-179.917
-180.973
-182.042
-183.127
-184.23
-185.354
-186.5
-187.671
-188.867
-190.091
-191.343
-192.624
-193.935
-195.275
-196.645
-198.045
-199.475
-200.934
-202.422
-203.938
-205.481
-207.051
-208.646
-210.265
-211.909
-213.575
-215.264
-216.975
-218.708
-220.46
-222.232
-224.022
-225.83
-227.653
-229.49
-231.338
-233.196
-235.062
-236.932
-238.804
-240.675
-242.541
-244.399
-246.246
-248.079
-249.893
-251.685
-253.45
-255.186
-256.888
-258.553
-260.175
-261.75
-263.275
-264.744
-266.154
-267.499
-268.775
-269.976
-271.098
-272.138
-273.092
-273.956
-274.726
-275.399
-275.974
-276.449
-276.824
-277.098
-277.272
-277.348
-277.33
-277.225
-277.038
-276.776
-276.446
-276.057
-275.619
-275.139
-274.625
-274.083
-273.52
-272.946
-272.372
-271.81
-271.27
-270.765
-270.307
-269.91
-269.589
-269.351
-269.201
-269.146
-269.193
-269.359
-269.662
-270.116
-270.732
-271.519
-272.484
-273.629
-274.945
-276.409
-277.985
-279.641
-281.348
-283.09
-284.852
-286.611
-288.335
-289.99
-291.545
-292.982
-294.287
-295.442
-296.433
-297.279
-298.042
-298.813
-299.706
-300.802
-302.144
-303.796
-305.837
-308.351
-311.453
-315.231
-319.702
-324.926
-331.006
-337.917
-345.546
-353.57
-361.387
-368.474
-374.42
-378.746
-381.122
-381.514
-380.079
-377.535
-375.052
-373.502
-373.65
-376.184
-381.119
-387.869
-395.304
-401.208
-402.875
-397.907
-383.819
-358.474
-320.913
-271.236
-210.781
-142.639
-70.84
0.053
64.726
117.872
154.912
172.288
167.784
141.026
93.343
27.701
-51.424
-138.594
-227.877
-313.592
-390.362
-453.73
-501.115
-531.727
-546.262
-546.769
-536.227
-517.873
-495.528
-473.033
-452.847
-436.253
-423.663
-414.632
-408.341
-403.921
-400.008
-395.033
-388.219
-379.408
-368.828
-357.099
-344.812
-332.432
-320.603
-310.075
-301.263
-294.354
-289.386
-286.163
-284.488
-284.203
-285.025
-286.623
-288.732
-291.095
-293.495
-295.822
-297.965
-299.826
-301.367
-302.527
-303.255
-303.528
-303.298
-302.537
-301.267
-299.529
-297.401
-295.007
-292.454
-289.843
-287.282
-284.835
-282.546
-280.446
-278.535
-276.803
-275.253
-273.879
-272.689
-271.696
-270.89
-270.256
-269.766
-269.37
-269.027
-268.702
-268.352
-267.949
-267.477
-266.919
-266.277
-265.561
-264.773
-263.913
-262.982
-261.972
-260.879
-259.706
-258.451
-257.119
-255.715
-254.242
-252.708
-251.121
-249.485
-247.805
-246.083
-244.319
-242.514
-240.671
-238.793
-236.883
-234.945
-232.983
-231.001
-229.005
-226.997
-224.98
-222.957
-220.926
-218.889
-216.845
-214.794
-212.733
-210.661
-208.577
-206.478
-204.363
-202.229
-200.074
-197.897
-195.694
-193.465
-191.207
-188.92
-186.601
-184.251
-181.866
-179.448
-176.994
-174.505
-171.98
-169.419
-166.822
-164.189
-161.52
-158.815
-156.075
-153.302
-150.495
-147.658
-144.793
-141.902
-138.989
-136.057
-133.109
-130.15
-127.183
-124.213
-121.242
-118.275
-115.314
-112.363
-109.424
-106.499
-103.589
-100.695
-97.817
-94.956
-92.109
-89.277
-86.456
-83.645
-80.843
-78.046
-75.252
-72.459
-69.663
-66.863
-64.055
-61.236
-58.405
-55.557
-52.69
-49.801
-46.888
-43.948
-40.977
-37.974
-34.935
-31.859
-28.743
-25.586
-22.385
-19.14
-15.851
-12.517
-9.138
-5.717
-2.254
1.249
4.789
8.362
11.966
15.595
19.248
22.918
26.603
30.297
33.997
37.699
41.399
45.094
48.781
52.457
56.12
59.768
63.398
67.011
70.603
74.176
77.728
81.26
84.773
88.269
91.748
95.213
98.667
102.114
105.558
109.004
112.457
115.924
119.41
122.923
126.47
130.061
133.703
137.406
141.179
145.03
148.971
153.008
157.151
161.409
165.79
170.302
174.952
179.747
184.693
189.797
195.063
200.496
206.099
211.873
217.82
223.94
230.232
236.692
243.316
250.097
257.029
264.105
271.314
278.648
286.094
293.639
301.273
308.981
316.75
324.564
332.405
340.254
348.094
355.907
363.675
371.381
379.005
386.531
393.943
401.228
408.373
415.364
422.187
428.823
435.262
441.504
447.55
453.406
459.084
464.602
469.98
475.257
480.467
485.643
490.82
496.023
501.284
506.64
512.134
517.812
523.718
529.873
536.29
542.985
549.947
557.154
564.572
572.128
579.743
587.342
594.836
602.147
609.206
615.936
622.262
628.105
633.359
637.949
641.829
644.931
647.268
648.842
649.585
649.646
649.326
648.995
649.248
650.64
653.49
658.321
665.823
676.127
689.069
704.125
720.002
735.719
750.727
763.978
774.486
782.285
787.937
792.793
799.387
809.994
826.749
852.323
889.172
937.298
994.266
1058.826
1129.385
1205.566
1289.772
1375.72
1450.219
1500.546
1511.32
1477.533
1408.589
1315.311
1209.398
1097.155
970.958
819.618
640.868
443.113
