Name,Aleksandre Beruashvili
Date of Birth,"Dec 20, 1998"
Recorded Date,2024-05-19 00:05:59 +0400
Classification,Sinus Rhythm
Symptoms,
Software Version,1.90
Device,"Watch7,2"
Sample Rate,512 hertz


Lead,Lead I
Unit,µV

-313.374
-38.32
106.643
130.128
81.463
27.384
5.714
26.02
71.115
107.958
121.313
108.365
76.704
43.353
16.709
0.195
-5.552
-5.144
-1.134
5.744
14.246
24.162
34.532
43.045
48.592
51.132
50.953
48.886
45.659
41.66
37.733
35.204
34.789
36.665
40.702
46.334
53.133
60.854
69.016
76.917
83.966
89.701
93.801
96.215
96.913
95.834
93.027
88.603
82.714
75.552
67.302
58.102
48.104
37.473
26.381
15.072
3.795
-7.214
-17.696
-27.476
-36.478
-44.668
-52.109
-58.934
-65.267
-71.273
-77.158
-83.079
-89.202
-95.667
-102.598
-110.226
-118.764
-128.282
-138.687
-149.669
-160.748
-171.458
-181.256
-189.343
-194.971
-197.796
-198.17
-197.017
-195.476
-194.833
-196.287
-201.148
-211.123
-225.661
-240.915
-253.146
-258.119
-254.623
-247.787
-238.96
-224.912
-199.086
-146.467
-55.735
75.552
245.605
440.727
640.025
820.073
953.348
1019.039
1005.845
916.38
765.829
570.899
351.958
125.88
-92.934
-283.089
-428.322
-521.089
-562.408
-568.712
-559.683
-545.81
-530.841
-511.115
-480.472
-439.999
-394.618
-349.214
-308.536
-274.449
-247.098
-226.675
-212.937
-204.898
-201.301
-201.508
-205.147
-211.438
-219.15
-226.634
-232.18
-235.125
-235.631
-233.716
-229.444
-223.124
-215.304
-206.998
-199.402
-193.097
-188.075
-184.159
-181.08
-178.618
-176.598
-174.67
-172.358
-169.388
-165.713
-161.423
-156.699
-151.659
-146.342
-140.806
-135.155
-129.485
-123.883
-118.426
-113.131
-108.001
-103.052
-98.289
-93.716
-89.331
-85.103
-80.979
-76.918
-72.887
-68.865
-64.835
-60.771
-56.636
-52.389
-47.992
-43.412
-38.619
-33.581
-28.266
-22.642
-16.686
-10.385
-3.728
3.294
10.694
18.482
26.667
35.254
44.243
53.631
63.414
73.584
84.124
95.016
106.234
117.751
129.537
141.558
153.777
166.154
178.647
191.209
203.793
216.349
228.824
241.163
253.311
265.21
276.803
288.035
298.848
309.186
318.995
328.223
336.822
344.742
351.939
358.372
364.002
368.795
372.72
375.752
377.866
379.048
379.283
378.567
376.895
374.273
370.708
366.212
360.804
354.507
347.349
339.36
330.577
321.041
310.796
299.89
288.375
276.304
263.735
250.726
237.337
223.63
209.666
195.508
181.217
166.857
152.487
138.167
123.956
109.909
96.082
82.525
69.289
56.418
43.956
31.942
20.41
9.394
-1.079
-10.985
-20.303
-29.019
-37.119
-44.596
-51.446
-57.67
-63.273
-68.261
-72.647
-76.447
-79.677
-82.359
-84.517
-86.176
-87.365
-88.112
-88.45
-88.412
-88.029
-87.337
-86.371
-85.164
-83.752
-82.168
-80.448
-78.622
-76.725
-74.787
-72.838
-70.906
-69.019
-67.203
-65.481
-63.875
-62.406
-61.09
-59.944
-58.981
-58.214
-57.65
-57.298
-57.163
-57.248
-57.554
-58.08
-58.825
-59.783
-60.948
-62.314
-63.871
-65.61
-67.52
-69.589
-71.805
-74.154
-76.623
-79.198
-81.864
-84.607
-87.412
-90.263
-93.146
-96.045
-98.946
-101.834
-104.695
-107.515
-110.283
-112.984
-115.609
-118.144
-120.581
-122.91
-125.122
-127.211
-129.169
-130.991
-132.674
-134.214
-135.609
-136.859
-137.964
-138.925
-139.743
-140.421
-140.963
-141.371
-141.65
-141.805
-141.841
-141.765
-141.583
-141.302
-140.928
-140.47
-139.935
-139.331
-138.664
-137.944
-137.178
-136.372
-135.536
-134.677
-133.802
-132.918
-132.033
-131.152
-130.282
-129.427
-128.592
-127.781
-126.995
-126.238
-125.51
-124.814
-124.15
-123.518
-122.918
-122.35
-121.813
-121.307
-120.829
-120.378
-119.953
-119.551
-119.171
-118.81
-118.467
-118.14
-117.828
-117.529
-117.242
-116.965
-116.696
-116.434
-116.177
-115.922
-115.669
-115.416
-115.161
-114.905
-114.646
-114.386
-114.125
-113.865
-113.604
-113.346
-113.09
-112.838
-112.592
-112.35
-112.114
-111.883
-111.66
-111.444
-111.234
-111.031
-110.833
-110.639
-110.446
-110.253
-110.056
-109.851
-109.634
-109.402
-109.151
-108.878
-108.58
-108.252
-107.892
-107.497
-107.063
-106.589
-106.069
-105.5
-104.88
-104.206
-103.478
-102.692
-101.848
-100.948
-99.995
-98.995
-97.956
-96.882
-95.78
-94.658
-93.529
-92.403
-91.289
-90.191
-89.115
-88.071
-87.073
-86.134
-85.264
-84.469
-83.754
-83.129
-82.607
-82.2
-81.91
-81.733
-81.66
-81.695
-81.856
-82.172
-82.664
-83.34
-84.197
-85.242
-86.479
-87.906
-89.505
-91.225
-93.01
-94.814
-96.596
-98.344
-100.046
-101.673
-103.184
-104.505
-105.546
-106.262
-106.642
-106.683
-106.449
-105.958
-105.158
-104.235
-103.521
-103.315
-103.991
-105.677
-108.134
-111.442
-116.027
-121.862
-128.592
-135.618
-141.736
-146.347
-149.787
-151.848
-151.812
-149.568
-145.452
-140.527
-137.231
-137.579
-142.063
-151.312
-166.464
-186.336
-209.11
-233.846
-256.047
-273.969
-287.428
-288.219
-269.79
-224.721
-144.578
-36.341
88.727
220.755
347.379
469.28
593.215
716.032
830.255
917.371
949.874
914.763
812.58
655.602
467.246
265.319
62.425
-129.157
-295.836
-422.092
-499.112
-528.138
-521.972
-498.724
-469.204
-437.975
-404.435
-365.026
-321.529
-278.184
-238.818
-208.087
-187.857
-177.178
-174.568
-177.62
-183.622
-190.986
-198.454
-204.214
-206.912
-206.03
-201.473
-193.874
-184.37
-173.691
-162.574
-152.191
-143.331
-136.347
-131.381
-128.128
-126.097
-124.931
-124.151
-123.167
-121.626
-119.339
-116.235
-112.407
-107.933
-102.866
-97.314
-91.405
-85.228
-78.855
-72.329
-65.68
-58.977
-52.313
-45.789
-39.478
-33.419
-27.63
-22.116
-16.879
-11.914
-7.196
-2.684
1.654
5.841
9.902
13.854
17.732
21.577
25.43
29.336
33.333
37.456
41.737
46.206
50.887
55.801
60.967
66.396
72.106
78.112
84.431
91.074
98.053
105.372
113.034
121.039
129.383
138.054
147.04
156.324
165.884
175.698
185.739
195.975
206.372
216.894
227.499
238.147
248.79
259.38
269.868
280.202
290.33
300.201
309.761
318.956
327.735
336.046
343.84
351.068
357.683
363.641
368.901
373.424
377.175
380.122
382.237
383.497
383.883
383.378
381.973
379.662
376.444
372.323
367.307
361.409
354.648
347.045
338.628
329.427
319.477
308.817
297.488
285.537
273.01
259.957
246.432
232.487
218.179
203.565
188.7
173.643
158.451
143.181
127.888
112.628
97.453
82.416
67.565
52.949
38.612
24.597
10.944
-2.312
-15.138
-27.503
-39.38
-50.749
-61.588
-71.883
-81.622
-90.796
-99.399
-107.429
-114.887
-121.777
-128.106
-133.882
-139.117
-143.826
-148.023
-151.726
-154.955
-157.729
-160.071
-162.002
-163.545
-164.723
-165.558
-166.075
-166.295
-166.241
-165.935
-165.4
-164.654
-163.718
-162.611
-161.349
-159.949
-158.425
-156.791
-155.059
-153.241
-151.345
-149.38
-147.355
-145.275
-143.147
-140.975
-138.763
-136.514
-134.231
-131.915
-129.568
-127.191
-124.785
-122.352
-119.891
-117.404
-114.893
-112.358
-109.803
-107.229
-104.639
-102.037
-99.426
-96.811
-94.196
-91.588
-88.992
-86.417
-83.868
-81.356
-78.888
-76.473
-74.12
-71.84
-69.641
-67.533
-65.526
-63.628
-61.849
-60.198
-58.682
-57.311
-56.092
-55.032
-54.138
-53.413
-52.864
-52.494
-52.305
-52.298
-52.475
-52.835
-53.375
-54.092
-54.984
-56.045
-57.267
-58.644
-60.167
-61.826
-63.609
-65.505
-67.501
-69.582
-71.736
-73.947
-76.199
-78.478
-80.768
-83.052
-85.315
-87.541
-89.713
-91.817
-93.836
-95.756
-97.563
-99.242
-100.782
-102.17
-103.395
-104.448
-105.319
-106.003
-106.491
-106.779
-106.864
-106.742
-106.414
-105.88
-105.141
-104.202
-103.068
-101.746
-100.243
-98.568
-96.734
-94.75
-92.63
-90.386
-88.034
-85.588
-83.064
-80.479
-77.85
-75.193
-72.528
-69.871
-67.241
-64.654
-62.129
-59.68
-57.324
-55.076
-52.95
-50.96
-49.116
-47.431
-45.914
-44.574
-43.419
-42.453
-41.68
-41.103
-40.722
-40.536
-40.542
-40.733
-41.104
-41.647
-42.351
-43.208
-44.203
-45.323
-46.554
-47.878
-49.279
-50.739
-52.238
-53.755
-55.272
-56.768
-58.224
-59.62
-60.936
-62.156
-63.26
-64.233
-65.059
-65.724
-66.213
-66.514
-66.616
-66.513
-66.198
-65.666
-64.915
-63.946
-62.764
-61.379
-59.801
-58.041
-56.111
-54.027
-51.81
-49.482
-47.063
-44.571
-42.023
-39.445
-36.861
-34.299
-31.783
-29.331
-26.959
-24.688
-22.542
-20.545
-18.711
-17.047
-15.556
-14.245
-13.135
-12.255
-11.629
-11.267
-11.171
-11.346
-11.798
-12.53
-13.532
-14.761
-16.172
-17.715
-19.351
-21.06
-22.821
-24.613
-26.399
-28.114
-29.679
-31.016
-32.074
-32.838
-33.343
-33.592
-33.541
-33.271
-33.005
-33.124
-34.039
-35.92
-38.616
-42.002
-46.26
-51.482
-57.432
-63.265
-67.697
-69.937
-70.032
-68.28
-64.515
-58.477
-50.35
-41.636
-34.949
-32.304
-34.672
-42.365
-55.808
-75.684
-100.677
-126.041
-146.098
-156.757
-158.971
-157.024
-150.607
-132.323
-86.931
-1.126
125.428
281.389
445.019
597.853
734.921
856.157
962.322
1048.129
1095.562
1085.92
1011.313
872.967
683.562
465.614
238.869
23.499
-157.404
-290.576
-371.078
-402.006
-399.679
-380.447
-352.61
-320.504
-282.436
-234.953
-181.262
-127.1
-78.074
-40.304
-15.841
-3.311
-0.949
-6.169
-15.897
-27.702
-39.229
-47.743
-51.766
-51.039
-45.674
-36.511
-24.825
-11.706
1.575
13.464
23.143
30.385
35.172
37.96
39.275
39.554
39.425
39.546
40.275
41.775
44.081
47.063
50.654
54.812
59.426
64.391
69.628
75.071
80.692
86.458
92.298
98.118
103.815
109.315
114.584
119.602
124.365
128.879
133.154
137.214
141.103
144.851
148.485
152.033
155.519
158.978
162.456
165.999
169.652
173.461
177.463
181.691
186.18
190.953
196.035
201.445
207.199
213.314
219.807
226.695
233.992
241.707
249.847
258.414
267.41
276.828
286.658
296.887
307.495
318.462
329.763
341.368
353.246
365.359
377.668
390.13
402.697
415.321
427.949
440.526
452.995
465.299
477.377
489.17
500.619
511.662
522.241
532.299
541.78
550.63
558.796
566.23
572.886
578.722
583.699
587.783
590.942
593.153
594.393
594.649
593.91
592.17
589.43
585.695
580.976
575.289
568.656
561.103
552.661
543.367
533.261
522.388
510.799
498.545
485.683
472.271
458.371
444.044
429.356
414.371
399.154
383.771
368.287
352.765
337.269
321.859
306.594
291.529
276.72
262.215
248.062
234.304
220.98
208.126
195.773
183.949
172.675
161.971
151.849
142.319
133.386
125.049
117.305
110.144
103.554
97.52
92.022
87.036
82.537
78.496
74.884
71.667
68.813
66.286
64.05
62.069
60.307
58.729
57.298
55.98
54.743
53.553
52.382
51.2
49.98
48.699
47.334
45.864
44.272
42.542
40.66
38.617
36.402
34.011
31.44
28.687
25.753
22.64
19.353
15.898
12.282
8.514
4.603
0.56
-3.603
-7.875
-12.244
-16.698
-21.225
-25.814
-30.454
-35.135
-39.849
-44.586
-49.342
-54.109
-58.884
-63.662
-68.443
-73.224
-78.005
-82.787
-87.572
-92.363
-97.164
-101.978
-106.81
-111.667
-116.553
-121.477
-126.443
-131.459
-136.53
-141.662
-146.861
-152.132
-157.48
-162.908
-168.42
-174.017
-179.701
-185.471
-191.326
-197.263
-203.276
-209.359
-215.504
-221.702
-227.941
-234.209
-240.493
-246.777
-253.047
-259.286
-265.475
-271.597
-277.633
-283.563
-289.368
-295.028
-300.521
-305.83
-310.933
-315.812
-320.448
-324.823
-328.921
-332.725
-336.218
-339.388
-342.219
-344.7
-346.819
-348.569
-349.94
-350.927
-351.528
-351.74
-351.564
-351.003
-350.06
-348.742
-347.056
-345.012
-342.619
-339.892
-336.842
-333.486
-329.84
-325.921
-321.749
-317.343
-312.724
-307.914
-302.933
-297.805
-292.55
-287.193
-281.756
-276.262
-270.736
-265.2
-259.68
-254.198
-248.777
-243.441
-238.209
-233.103
-228.141
-223.341
-218.718
-214.288
-210.063
-206.057
-202.28
-198.742
-195.452
-192.416
-189.641
-187.129
-184.883
-182.905
-181.193
-179.744
-178.555
-177.621
-176.936
-176.493
-176.285
-176.301
-176.531
-176.962
-177.58
-178.37
-179.315
-180.398
-181.6
-182.902
-184.287
-185.736
-187.23
-188.753
-190.288
-191.817
-193.325
-194.794
-196.21
-197.557
-198.822
-199.992
-201.056
-202.002
-202.824
-203.515
-204.072
-204.495
-204.781
-204.931
-204.949
-204.841
-204.617
-204.283
-203.845
-203.307
-202.674
-201.958
-201.171
-200.323
-199.422
-198.475
-197.492
-196.488
-195.484
-194.488
-193.499
-192.506
-191.498
-190.478
-189.463
-188.48
-187.544
-186.667
-185.856
-185.128
-184.503
-183.985
-183.554
-183.155
-182.721
-182.211
-181.616
-180.953
-180.254
-179.512
-178.665
-177.632
-176.327
-174.701
-172.777
-170.53
-167.891
-164.902
-161.677
-158.556
-156.105
-154.646
-154.193
-154.691
-155.966
-157.85
-160.4
-163.184
-165.157
-165.656
-164.294
-161.032
-156.488
-150.985
-144.235
-136.662
-129.594
-124.308
-122.303
-124.663
-131.366
-142.741
-159.935
-181.872
-204.903
-225.377
-238.623
-244.61
-248.82
-251.246
-247.685
-225.713
-166.296
-64.039
76.127
239.249
402.547
557.889
702.703
831.899
940.394
1008.59
1014.272
950.07
817.173
628.833
409.148
177.784
-45.891
-238.006
-383.585
-477.733
-521.428
-528.906
-515.918
-485.545
-442.957
-393.701
-339.967
-294.003
-261.542
-236.988
-217.739
-197.752
-175.142
-156.592
-144.983
-141.37
-145.103
-151.973
-159.43
-165.995
-170.084
-171.439
-170.155
-166.381
-160.724
-153.685
-145.674
-137.535
-130.331
-124.72
-120.891
-118.716
-117.766
-117.616
-118.012
-118.579
-118.818
-118.44
-117.308
-115.392
-112.833
-109.759
-106.21
-102.264
-98.013
-93.505
-88.809
-83.988
-79.077
-74.144
-69.248
-64.41
-59.657
-54.994
-50.406
-45.878
-41.378
-36.851
-32.256
-27.565
-22.746
-17.778
-12.629
-7.256
-1.62
4.317
10.589
17.228
24.264
31.724
39.628
47.989
56.815
66.106
75.868
86.104
96.818
108.007
119.666
131.787
144.355
157.358
170.775
184.579
198.74
213.224
227.996
243.016
258.243
273.631
289.132
304.695
320.269
335.797
351.224
366.49
381.536
396.3
410.722
424.743
438.301
451.338
463.796
475.618
486.75
497.142
506.743
515.509
523.396
530.365
536.383
541.418
545.443
548.438
550.385
551.272
551.092
549.843
547.527
544.153
539.732
534.281
527.823
520.384
511.994
502.69
492.509
481.496
469.697
457.162
443.944
430.097
415.679
400.749
385.368
369.596
353.496
337.13
320.561
303.85
287.058
270.244
253.468
236.785
220.25
203.916
187.831
172.044
156.599
141.537
126.897
112.714
99.02
85.843
73.208
61.137
49.646
38.75
28.459
18.779
9.715
1.267
-6.57
-13.8
-20.432
-26.479
-31.953
-36.871
-41.251
-45.113
-48.477
-51.367
-53.806
-55.819
-57.429
-58.664
-59.549
-60.109
-60.372
-60.362
-60.106
-59.629
-58.957
-58.113
-57.121
-56.004
-54.784
-53.482
-52.117
-50.707
-49.271
-47.824
-46.381
-44.955
-43.558
-42.203
-40.897
-39.649
-38.468
-37.358
-36.326
-35.376
-34.512
-33.736
-33.051
-32.459
-31.96
-31.557
-31.248
-31.034
-30.914
-30.887
-30.952
-31.107
-31.351
-31.679
-32.091
-32.584
-33.154
-33.798
-34.513
-35.296
-36.143
-37.052
-38.018
-39.04
-40.113
-41.235
-42.403
-43.615
-44.869
-46.162
-47.492
-48.857
-50.255
-51.683
-53.14
-54.621
-56.126
-57.652
-59.195
-60.754
-62.325
-63.906
-65.495
-67.088
-68.683
-70.278
-71.869
-73.456
-75.034
-76.603
-78.161
-79.704
-81.233
-82.744
-84.237
-85.709
-87.158
-88.583
-89.98
-91.347
-92.682
-93.982
-95.243
-96.464
-97.642
-98.774
-99.856
-100.888
-101.866
-102.788
-103.652
-104.456
-105.197
-105.875
-106.488
-107.033
-107.511
-107.92
-108.259
-108.529
-108.727
-108.855
-108.911
-108.896
-108.809
-108.65
-108.421
-108.122
-107.755
-107.322
-106.826
-106.269
-105.657
-104.992
-104.28
-103.526
-102.734
-101.911
-101.062
-100.195
-99.314
-98.426
-97.539
-96.659
-95.794
-94.949
-94.132
-93.348
-92.604
-91.905
-91.256
-90.663
-90.128
-89.658
-89.254
-88.922
-88.664
-88.482
-88.379
-88.355
-88.411
-88.546
-88.757
-89.042
-89.396
-89.815
-90.294
-90.828
-91.409
-92.03
-92.683
-93.361
-94.055
-94.757
-95.459
-96.148
-96.817
-97.457
-98.059
-98.617
-99.123
-99.57
-99.956
-100.279
-100.541
-100.742
-100.882
-100.963
-100.986
-100.954
-100.873
-100.744
-100.571
-100.357
-100.108
-99.837
-99.554
-99.268
-98.986
-98.714
-98.455
-98.22
-98.011
-97.828
-97.674
-97.554
-97.475
-97.459
-97.521
-97.666
-97.904
-98.235
-98.649
-99.142
-99.688
-100.248
-100.792
-101.29
-101.719
-102.069
-102.303
-102.381
-102.271
-101.935
-101.367
-100.561
-99.466
-98.036
-96.279
-94.253
-92.091
-89.917
-87.746
-85.661
-83.891
-82.793
-82.775
-84.006
-86.41
-89.946
-94.715
-100.647
-107.294
-113.606
-118.239
-120.377
-119.775
-116.311
-109.78
-100.297
-88.737
-77.046
-67.986
-63.778
-65.664
-74.84
-90.954
-111.192
-132.374
-149.97
-162.877
-175.696
-188.811
-198.11
-190.569
-144.667
-50.403
90.439
265.45
451.554
634.128
805.835
955.971
1075.482
1150.755
1162.264
1104.219
978.808
792.607
569.142
330.541
100.485
-90.934
-231.957
-320.869
-366.62
-392.736
-411.385
-425.584
-432.865
-422.742
-393.622
-351.283
-302.423
-255.999
-216.768
-185.732
-164.014
-151.439
-146.909
-149.357
-156.73
-166.609
-177.208
-186.506
-192.703
-195.032
-193.246
-187.598
-179.044
-168.634
-157.418
-146.815
-137.851
-130.924
-126.222
-123.517
-122.335
-122.23
-122.583
-122.664
-122.034
-120.483
-117.94
-114.505
-110.261
-105.25
-99.601
-93.451
-86.898
-80.021
-72.857
-65.441
-57.855
-50.213
-42.64
-35.236
-28.051
-21.115
-14.442
-8.034
-1.887
4.021
9.731
15.275
20.674
25.95
31.119
36.209
41.261
46.319
51.425
56.625
61.954
67.444
73.128
79.031
85.174
91.576
98.251
105.214
112.484
120.077
128.01
136.293
144.934
153.939
163.309
173.042
183.127
193.554
204.303
215.356
226.688
238.271
250.073
262.06
274.192
286.428
298.723
311.031
323.301
335.48
347.515
359.351
370.93
382.196
393.091
403.558
413.539
422.98
431.826
440.025
447.527
454.283
460.249
465.384
469.649
473.01
475.438
476.905
477.393
476.887
475.375
472.854
469.323
464.789
459.262
452.759
445.301
436.914
427.628
417.48
406.508
394.757
382.275
369.113
355.326
340.972
326.111
310.805
295.117
279.112
262.856
246.415
229.853
213.238
196.633
180.101
163.704
147.501
131.551
115.908
100.624
85.746
71.32
57.388
43.985
31.147
18.901
7.272
-3.719
-14.055
-23.725
-32.721
-41.041
-48.684
-55.656
-61.966
-67.627
-72.654
-77.067
-80.889
-84.143
-86.858
-89.063
-90.79
-92.069
-92.936
-93.425
-93.57
-93.408
-92.974
-92.303
-91.43
-90.389
-89.212
-87.931
-86.578
-85.18
-83.765
-82.358
-80.983
-79.661
-78.411
-77.252
-76.198
-75.262
-74.454
-73.784
-73.258
-72.879
-72.65
-72.571
-72.641
-72.856
-73.213
-73.705
-74.326
-75.067
-75.921
-76.878
-77.928
-79.061
-80.266
-81.534
-82.853
-84.214
-85.607
-87.021
-88.449
-89.881
-91.308
-92.724
-94.121
-95.493
-96.833
-98.137
-99.399
-100.616
-101.784
-102.9
-103.963
-104.971
-105.923
-106.82
-107.66
-108.444
-109.174
-109.849
-110.471
-111.041
-111.559
-112.028
-112.448
-112.819
-113.143
-113.421
-113.651
-113.835
-113.971
-114.058
-114.096
-114.083
-114.018
-113.898
-113.723
-113.489
-113.197
-112.843
-112.427
-111.948
-111.404
-110.794
-110.119
-109.378
-108.57
-107.698
-106.762
-105.764
-104.707
-103.594
-102.429
-101.216
-99.961
-98.67
-97.348
-96.004
-94.643
-93.276
-91.91
-90.556
-89.223
-87.923
-86.666
-85.464
-84.329
-83.272
-82.305
-81.439
-80.685
-80.053
-79.553
-79.194
-78.984
-78.931
-79.039
-79.317
-79.766
-80.39
-81.19
-82.166
-83.315
-84.635
-86.12
-87.763
-89.556
-91.489
-93.552
-95.733
-98.019
-100.393
-102.842
-105.347
-107.891
-110.456
-113.02
-115.563
-118.063
-120.499
-122.85
-125.095
-127.214
-129.185
-130.989
-132.609
-134.029
-135.234
-136.209
-136.941
-137.419
-137.637
-137.589
-137.27
-136.679
-135.818
-134.693
-133.314
-131.696
-129.852
-127.799
-125.554
-123.14
-120.579
-117.893
-115.101
-112.222
-109.279
-106.302
-103.32
-100.361
-97.449
-94.61
-91.873
-89.266
-86.816
-84.538
-82.44
-80.535
-78.84
-77.385
-76.207
-75.33
-74.768
-74.533
-74.635
-75.08
-75.865
-76.961
-78.312
-79.868
-81.586
-83.439
-85.405
-87.438
-89.474
-91.439
-93.257
-94.874
-96.251
-97.339
-98.099
-98.535
-98.676
-98.594
-98.405
-98.208
-98.113
-98.241
-98.7
-99.594
-101.054
-103.256
-106.362
-110.432
-115.334
-120.77
-126.374
-131.761
-136.501
-139.996
-141.601
-140.936
-138.27
-134.447
-130.434
-127.39
-126.497
-128.835
-135.959
-147.887
-161.418
-172.861
-178.502
-176.928
-172.63
-168.614
-161.495
-143.496
-100.115
-17.459
106.518
267.89
457.524
657.069
848.517
1009.492
1111.419
1138.021
1085.981
965.301
800.441
609.976
403.567
190.347
-20.569
-210.122
-352.506
-433.501
-453.548
-427.234
-381.375
-336.737
-302.818
-283.666
-272.377
-260.151
-243.576
-218.748
-188.304
-159.697
-136.47
-121.164
-113.028
-107.617
-103.343
-100.502
-99.231
-100.029
-101.984
-103.216
-103.099
-101.866
-99.545
-96.103
-91.464
-85.567
-79.136
-73.365
-68.794
-65.488
-63.296
-61.825
-60.871
-60.366
-59.975
-59.232
-57.866
-55.735
-52.873
-49.488
-45.696
-41.549
-37.127
-32.502
-27.763
-23.01
-18.322
-13.762
-9.378
-5.194
-1.235
2.484
5.964
9.215
12.275
15.205
18.054
20.858
23.648
26.447
29.288
32.221
35.289
38.535
42
45.716
49.722
54.057
58.752
63.831
69.311
75.202
81.519
88.276
95.486
103.158
111.298
119.908
128.984
138.523
148.516
158.945
169.789
181.021
192.612
204.529
216.736
229.191
241.85
254.667
267.591
280.569
293.548
306.468
319.271
331.895
344.28
356.365
368.086
379.383
390.195
400.464
410.133
419.147
427.454
435.005
441.753
447.657
452.678
456.782
459.939
462.125
463.318
463.506
462.679
460.834
457.973
454.103
449.236
443.391
436.591
428.864
420.242
410.763
400.468
389.402
377.615
365.161
352.093
338.472
324.356
309.808
294.891
279.67
264.209
248.571
232.822
217.025
201.241
185.532
169.957
154.572
139.431
124.587
110.088
95.978
82.299
69.09
56.384
44.21
32.595
21.561
11.125
1.3
-7.902
-16.478
-24.425
-31.745
-38.445
-44.532
-50.021
-54.925
-59.263
-63.056
-66.326
-69.097
-71.396
-73.25
-74.688
-75.739
-76.432
-76.799
-76.87
-76.674
-76.242
-75.603
-74.785
-73.816
-72.721
-71.527
-70.256
-68.931
-67.572
-66.197
-64.824
-63.468
-62.143
-60.861
-59.631
-58.463
-57.363
-56.336
-55.387
-54.517
-53.727
-53.018
-52.388
-51.835
-51.357
-50.95
-50.609
-50.332
-50.112
-49.944
-49.825
-49.747
-49.708
-49.7
-49.721
-49.765
-49.829
-49.909
-50.003
-50.107
-50.22
-50.339
-50.464
-50.593
-50.726
-50.863
-51.003
-51.149
-51.3
-51.457
-51.624
-51.8
-51.989
-52.192
-52.412
-52.651
-52.911
-53.194
-53.503
-53.84
-54.206
-54.603
-55.032
-55.496
-55.994
-56.527
-57.095
-57.697
-58.334
-59.004
-59.705
-60.435
-61.194
-61.977
-62.784
-63.611
-64.455
-65.315
-66.187
-67.068
-67.957
-68.849
-69.741
-70.632
-71.519
-72.398
-73.266
-74.123
-74.964
-75.787
-76.59
-77.371
-78.127
-78.855
-79.553
-80.22
-80.853
-81.452
-82.013
-82.538
-83.024
-83.472
-83.883
-84.256
-84.592
-84.892
-85.157
-85.389
-85.59
-85.76
-85.902
-86.017
-86.108
-86.177
-86.227
-86.26
-86.277
-86.282
-86.277
-86.264
-86.245
-86.224
-86.204
-86.186
-86.174
-86.173
-86.185
-86.214
-86.264
-86.337
-86.436
-86.564
-86.722
-86.913
-87.135
-87.39
-87.678
-87.997
-88.348
-88.728
-89.134
-89.565
-90.015
-90.481
-90.959
-91.443
-91.926
-92.403
-92.868
-93.314
-93.736
-94.126
-94.478
-94.785
-95.04
-95.239
-95.373
-95.436
-95.42
-95.32
-95.131
-94.85
-94.472
-93.995
-93.419
-92.748
-91.988
-91.142
-90.22
-89.227
-88.174
-87.071
-85.93
-84.758
-83.565
-82.361
-81.161
-79.981
-78.843
-77.762
-76.756
-75.842
-75.037
-74.359
-73.824
-73.433
-73.19
-73.106
-73.197
-73.494
-74.03
-74.815
-75.863
-77.183
-78.77
-80.617
-82.702
-84.968
-87.365
-89.85
-92.39
-94.973
-97.583
-100.173
-102.693
-105.073
-107.247
-109.186
-110.857
-112.216
-113.282
-114.108
-114.794
-115.501
-116.347
-117.419
-118.843
-120.734
-123.205
-126.386
-130.354
-135.236
-141.297
-148.657
-157.251
-166.842
-176.865
-186.702
-195.83
-203.497
-208.757
-211.033
-210.246
-206.945
-202.371
-197.942
-195.09
-195.367
-200.38
-209.738
-220.554
-229.555
-234.098
-236.042
-239.675
-243.963
-240.441
-211.575
-140.499
-24.182
126.943
290.876
447.727
592.329
726.227
850.88
959.696
1031.285
1042.589
983.133
854.428
671.764
458.61
231.866
8.924
-190.595
-352.108
-461.085
-513.629
-520.938
-498.889
-465.34
-431.258
-398.189
-364.003
-325.794
-285.019
-246.041
-213.431
-191.198
-179.558
-176.4
-179.466
-185.798
-192.903
-199.311
-203.287
-203.424
-199.527
-191.823
-180.903
-167.963
-154.092
-140.222
-127.584
-117.043
-108.834
-102.998
-99.261
-97.115
-96.159
-95.866
-95.533
-94.719
-93.206
-90.884
-87.835
-84.119
-79.731
-74.755
-69.315
-63.498
-57.39
-51.037
-44.451
-37.697
-30.871
-24.084
-17.462
-11.082
-4.982
0.808
6.279
11.429
16.26
20.804
25.108
29.207
33.131
36.909
40.563
44.134
47.67
51.219
54.83
58.547
62.406
66.444
70.695
75.187
79.944
84.988
90.332
95.996
101.999
108.356
115.083
122.191
129.688
137.579
145.865
154.545
163.61
173.049
182.845
192.981
203.433
214.175
225.177
236.403
247.817
259.378
271.042
282.762
294.487
306.166
317.744
329.166
340.375
351.314
361.925
372.151
381.936
391.225
399.963
408.099
415.584
422.369
428.41
433.667
438.102
441.68
444.372
446.152
446.998
446.894
445.83
443.798
440.797
436.831
431.907
426.041
419.249
411.556
402.99
393.583
383.374
372.402
360.713
348.357
335.383
321.847
307.804
293.314
278.435
263.228
247.754
232.074
216.25
200.342
184.41
168.513
152.708
137.05
121.592
106.387
91.481
76.921
62.749
49.004
35.723
22.937
10.674
-1.04
-12.185
-22.744
-32.704
-42.055
-50.793
-58.915
-66.423
-73.323
-79.621
-85.33
-90.463
-95.035
-99.064
-102.571
-105.576
-108.102
-110.173
-111.815
-113.051
-113.909
-114.414
-114.594
-114.474
-114.081
-113.44
-112.578
-111.517
-110.282
-108.895
-107.378
-105.752
-104.034
-102.242
-100.393
-98.502
-96.582
-94.645
-92.702
-90.761
-88.831
-86.918
-85.028
-83.167
-81.337
-79.543
-77.787
-76.07
-74.395
-72.762
-71.171
-69.624
-68.119
-66.657
-65.236
-63.856
-62.517
-61.217
-59.955
-58.731
-57.544
-56.394
-55.281
-54.203
-53.162
-52.157
-51.189
-50.259
-49.367
-48.515
-47.703
-46.935
-46.209
-45.53
-44.897
-44.312
-43.776
-43.291
-42.857
-42.475
-42.145
-41.867
-41.642
-41.47
-41.35
-41.282
-41.266
-41.3
-41.384
-41.517
-41.696
-41.922
-42.191
-42.501
-42.851
-43.238
-43.658
-44.11
-44.589
-45.092
-45.617
-46.157
-46.71
-47.271
-47.836
-48.4
-48.958
-49.507
-50.042
-50.559
-51.053
-51.52
-51.957
-52.359
-52.722
-53.044
-53.319
-53.545
-53.719
-53.837
-53.896
-53.894
-53.829
-53.698
-53.5
-53.234
-52.899
-52.494
-52.02
-51.477
-50.865
-50.187
-49.444
-48.639
-47.776
-46.858
-45.89
-44.877
-43.824
-42.738
-41.624
-40.49
-39.343
-38.191
-37.041
-35.902
-34.783
-33.693
-32.641
-31.637
-30.69
-29.809
-29.005
-28.285
-27.66
-27.138
-26.727
-26.435
-26.27
-26.238
-26.345
-26.599
-27.002
-27.559
-28.274
-29.146
-30.179
-31.37
-32.719
-34.221
-35.872
-37.668
-39.601
-41.667
-43.855
-46.155
-48.558
-51.052
-53.625
-56.264
-58.954
-61.68
-64.426
-67.177
-69.918
-72.633
-75.306
-77.919
-80.459
-82.911
-85.261
-87.496
-89.602
-91.567
-93.382
-95.038
-96.528
-97.846
-98.988
-99.952
-100.743
-101.366
-101.829
-102.139
-102.307
-102.345
-102.267
-102.089
-101.822
-101.48
-101.076
-100.628
-100.158
-99.689
-99.241
-98.837
-98.496
-98.241
-98.098
-98.084
-98.206
-98.475
-98.901
-99.504
-100.32
-101.377
-102.687
-104.263
-106.116
-108.243
-110.642
-113.29
-116.131
-119.116
-122.2
-125.351
-128.557
-131.792
-135.006
-138.14
-141.12
-143.892
-146.437
-148.717
-150.688
-152.36
-153.778
-155.046
-156.335
-157.743
-159.343
-161.239
-163.516
-166.3
-169.734
-173.883
-178.844
-184.827
-191.909
-200.048
-209.083
-218.471
-227.574
-235.874
-242.656
-247.061
-248.575
-247.095
-243.023
-237.517
-232.07
-228
-226.636
-229.778
-237.558
-247.384
-256.278
-260.4
-258.366
-254.587
-251.422
-245.417
-228.027
-183.094
-96.748
32.025
196.918
383.886
573.086
750.448
899.336
1000.613
1043.061
1017.134
925.107
781.137
596.77
387.748
168.771
-46.649
-236.509
-383.048
-477.785
-519.872
-520.087
-491.826
-443.386
-384.192
-325.073
-274.148
-239.098
-220.495
-208.955
-197.183
-181.702
-162.948
-147.747
-140.229
-139.47
-143.332
-147.796
-149.645
-148.088
-143.161
-135.269
-125.131
-113.656
-101.521
-89.498
-78.695
-69.791
-63.079
-58.737
-56.523
-55.992
-56.811
-58.449
-60.224
-61.736
-62.734
-63.076
-62.823
-62.005
-60.608
-58.714
-56.433
-53.836
-50.991
-47.921
-44.619
-41.128
-37.522
-33.886
-30.317
-26.865
-23.545
-20.367
-17.322
-14.396
-11.566
-8.781
-5.983
-3.125
-0.168
2.926
6.186
9.659
13.395
17.439
21.84
26.636
31.857
37.535
43.693
50.349
57.517
65.202
73.408
82.137
91.392
101.172
111.474
122.29
133.607
145.41
157.682
170.398
183.53
197.044
210.905
225.072
239.504
254.154
268.971
283.905
298.899
313.897
328.841
343.669
358.319
372.727
386.831
400.566
413.871
426.682
438.938
450.58
461.551
471.797
481.264
489.904
497.671
504.523
510.42
515.329
519.218
522.062
523.839
524.532
524.129
522.626
520.02
516.316
511.524
505.659
498.74
490.792
481.847
471.937
461.103
449.387
436.838
423.507
409.448
394.719
379.381
363.495
347.125
330.338
313.2
295.776
278.135
260.342
242.464
224.566
206.713
188.966
171.386
154.033
136.962
120.227
103.879
87.965
72.529
57.611
43.249
29.474
16.316
3.799
-8.057
-19.235
-29.724
-39.515
-48.605
-56.994
-64.686
-71.687
-78.01
-83.667
-88.676
-93.055
-96.827
-100.015
-102.644
-104.742
-106.336
-107.456
-108.131
-108.393
-108.272
-107.799
-107.006
-105.923
-104.582
-103.012
-101.244
-99.304
-97.222
-95.023
-92.733
-90.376
-87.973
-85.547
-83.117
-80.702
-78.317
-75.978
-73.699
-71.491
-69.365
-67.331
-65.396
-63.567
-61.85
-60.249
-58.77
-57.414
-56.186
-55.087
-54.119
-53.284
-52.581
-52.013
-51.578
-51.277
-51.11
-51.076
-51.175
-51.405
-51.766
-52.256
-52.874
-53.618
-54.484
-55.472
-56.577
-57.796
-59.126
-60.564
-62.103
-63.741
-65.473
-67.294
-69.198
-71.18
-73.233
-75.352
-77.529
-79.757
-82.029
-84.337
-86.672
-89.026
-91.39
-93.755
-96.111
-98.45
-100.761
-103.035
-105.262
-107.431
-109.535
-111.562
-113.506
-115.357
-117.108
-118.751
-120.282
-121.694
-122.983
-124.144
-125.174
-126.073
-126.837
-127.466
-127.961
-128.323
-128.554
-128.657
-128.635
-128.493
-128.235
-127.867
-127.395
-126.825
-126.164
-125.42
-124.601
-123.714
-122.769
-121.776
-120.744
-119.682
-118.6
-117.509
-116.417
-115.335
-114.272
-113.236
-112.236
-111.281
-110.378
-109.535
-108.758
-108.052
-107.422
-106.873
-106.407
-106.027
-105.735
-105.531
-105.416
-105.389
-105.45
-105.598
-105.831
-106.145
-106.539
-107.009
-107.55
-108.157
-108.824
-109.545
-110.313
-111.119
-111.958
-112.82
-113.696
-114.578
-115.455
-116.317
-117.155
-117.958
-118.715
-119.415
-120.048
-120.603
-121.073
-121.448
-121.718
-121.877
-121.918
-121.835
-121.622
-121.275
-120.788
-120.158
-119.383
-118.462
-117.394
-116.181
-114.823
-113.328
-111.702
-109.956
-108.1
-106.145
-104.104
-101.99
-99.819
-97.604
-95.354
-93.083
-90.803
-88.53
-86.286
-84.09
-81.956
-79.903
-77.947
-76.103
-74.391
-72.818
-71.386
-70.1
-68.967
-68.007
-67.256
-66.738
-66.464
-66.445
-66.683
-67.174
-67.914
-68.871
-69.99
-71.223
-72.52
-73.85
-75.207
-76.557
-77.853
-79.034
-80.014
-80.734
-81.168
-81.28
-81.05
-80.506
-79.692
-78.709
-77.708
-76.812
-76.144
-75.848
-76.058
-76.918
-78.542
-81.092
-84.808
-89.827
-96.162
-103.594
-111.574
-119.522
-126.993
-133.376
-137.881
-139.961
-139.336
-136.513
-133.007
-130.215
-129.031
-130.57
-136.023
-145.963
-160.604
-177.203
-189.699
-194.595
-189.844
-175.004
-153.399
-120.667
-67.773
10.251
119.536
254.871
402.183
553.296
697.844
829.298
942.08
1021.301
1052.597
1023.013
929.444
781.307
590.532
375.989
155.217
-55.861
-233.312
-361.624
-436.249
-459.442
-449.831
-424.867
-390.922
-355.683
-318.821
-279.539
-245.006
-213.961
-185.769
-161.559
-138.003
-118.26
-104.809
-96.359
-93.078
-92.819
-93.616
-95.27
-96.537
-96.192
-93.898
-89.629
-83.824
-76.995
-69.336
-61.027
-52.69
-45.332
-39.558
-35.47
-32.873
-31.319
-30.452
-30.098
-29.943
-29.519
-28.544
-26.887
-24.535
-21.657
-18.389
-14.779
-10.911
-6.879
-2.748
1.391
5.462
9.412
13.167
16.67
19.894
22.811
25.42
27.738
29.785
31.61
33.272
34.816
36.278
37.69
39.078
40.479
41.938
43.498
45.206
47.107
49.243
51.664
54.412
57.523
61.026
64.942
69.287
74.076
79.322
85.039
91.242
97.95
105.183
112.955
121.267
130.105
139.441
149.23
159.411
169.916
180.67
191.612
202.69
213.873
225.149
236.512
247.954
259.449
270.942
282.382
293.724
304.933
315.986
326.886
337.659
348.349
359.019
369.696
380.369
390.974
401.392
411.478
421.058
429.99
438.173
445.515
451.936
457.359
461.705
464.869
466.734
467.153
465.954
463.01
458.253
451.687
443.397
433.526
422.273
409.813
396.297
381.86
366.613
350.664
334.12
317.099
299.731
282.18
264.647
247.309
230.312
213.744
197.635
181.97
166.687
151.735
137.079
122.701
108.612
94.829
81.379
68.294
55.609
43.332
31.443
19.926
8.765
-2.032
-12.435
-22.396
-31.85
-40.74
-49.015
-56.638
-63.589
-69.862
-75.463
-80.411
-84.735
-88.458
-91.597
-94.167
-96.183
-97.665
-98.64
-99.14
-99.2
-98.86
-98.157
-97.13
-95.816
-94.248
-92.454
-90.462
-88.294
-85.972
-83.52
-80.964
-78.327
-75.635
-72.913
-70.184
-67.471
-64.796
-62.177
-59.632
-57.174
-54.816
-52.569
-50.443
-48.446
-46.582
-44.857
-43.275
-41.837
-40.543
-39.394
-38.387
-37.519
-36.787
-36.186
-35.71
-35.353
-35.107
-34.966
-34.922
-34.966
-35.091
-35.289
-35.55
-35.867
-36.229
-36.628
-37.053
-37.495
-37.944
-38.391
-38.828
-39.246
-39.638
-39.996
-40.314
-40.587
-40.809
-40.976
-41.084
-41.129
-41.109
-41.022
-40.868
-40.645
-40.354
-39.994
-39.568
-39.076
-38.52
-37.904
-37.23
-36.501
-35.722
-34.895
-34.027
-33.12
-32.18
-31.211
-30.219
-29.208
-28.185
-27.154
-26.122
-25.094
-24.078
-23.079
-22.103
-21.157
-20.247
-19.379
-18.558
-17.79
-17.079
-16.428
-15.843
-15.327
-14.884
-14.519
-14.234
-14.034
-13.919
-13.894
-13.961
-14.12
-14.373
-14.721
-15.165
-15.704
-16.341
-17.077
-17.909
-18.84
-19.866
-20.989
-22.205
-23.51
-24.898
-26.365
-27.903
-29.507
-31.167
-32.873
-34.618
-36.394
-38.195
-40.015
-41.844
-43.675
-45.5
-47.312
-49.104
-50.863
-52.573
-54.22
-55.792
-57.279
-58.672
-59.962
-61.138
-62.191
-63.117
-63.916
-64.585
-65.115
-65.488
-65.683
-65.697
-65.546
-65.262
-64.868
-64.388
-63.845
-63.274
-62.725
-62.23
-61.797
-61.403
-61.017
-60.634
-60.274
-59.984
-59.811
-59.774
-59.859
-60.043
-60.323
-60.698
-61.153
-61.633
-62.057
-62.391
-62.685
-63.062
-63.656
-64.555
-65.789
-67.359
-69.277
-71.574
-74.298
-77.471
-81.061
-85.052
-89.461
-94.371
-99.905
-106.104
-112.876
-120.031
-127.367
-134.737
-142.067
-149.304
-156.357
-163.163
-169.694
-176.004
-182.232
-188.471
-194.739
-201.002
-207.204
-213.382
-219.717
-226.411
-233.674
-241.738
-250.695
-260.546
-271.196
-282.206
-292.946
-302.799
-311.013
-316.815
-319.78
-319.752
-317.093
-313.028
-309.043
-306.423
-306.301
-309.745
-317.535
-329.914
-345.961
-361.753
-371.398
-369.859
-353.581
-323.578
-283.28
-232.79
-169.369
-84.959
28.522
172.415
341.814
522.547
697.744
848.862
956.962
1009.126
993.064
907.348
759.862
559.301
326.72
83.647
-149.305
-343.653
-484.097
-569.613
-604.656
-607.002
-592.053
-560.35
-515.578
-462.438
-404.043
-354
-318.515
-292.176
-272.109
-251.979
-229.543
-210.868
-198.586
-193.654
-195.044
-198.432
-201.037
-201.05
-197.572
-191.12
-182.089
-171.014
-158.745
-145.813
-133.019
-121.575
-112.077
-104.722
-99.512
-95.998
-93.72
-92.351
-91.373
-90.199
-88.502
-86.098
-82.938
-79.147
-74.798
-69.936
-64.665
-59.092
-53.296
-47.353
-41.303
-35.183
-29.062
-23.028
-17.17
-11.551
-6.199
-1.123
3.682
8.234
12.556
16.688
20.681
24.575
28.403
32.199
35.994
39.83
43.752
47.804
52.032
56.478
61.178
66.164
71.464
77.1
83.089
89.445
96.178
103.299
110.818
118.744
127.081
135.831
144.99
154.552
164.508
174.84
185.529
196.552
207.88
219.483
231.329
243.379
255.595
267.933
280.35
292.797
305.226
317.584
329.818
341.874
353.697
365.231
376.421
387.21
397.546
407.373
416.641
425.298
433.298
440.595
447.145
452.91
457.853
461.943
465.152
467.455
468.834
469.274
468.765
467.303
464.886
461.52
457.212
451.977
445.833
438.802
430.911
422.19
412.675
402.405
391.42
379.768
367.495
354.653
341.293
327.472
313.244
298.668
283.802
268.704
253.434
238.049
222.608
207.168
191.785
176.513
161.403
146.505
131.867
117.533
103.546
89.944
76.763
64.036
51.793
40.059
28.857
18.205
8.12
-1.388
-10.31
-18.642
-26.382
-33.531
-40.095
-46.081
-51.499
-56.36
-60.681
-64.479
-67.771
-70.58
-72.927
-74.836
-76.331
-77.438
-78.182
-78.589
-78.686
-78.498
-78.051
-77.371
-76.483
-75.411
-74.179
-72.811
-71.327
-69.749
-68.096
-66.387
-64.637
-62.863
-61.079
-59.298
-57.53
-55.787
-54.078
-52.41
-50.792
-49.228
-47.725
-46.286
-44.914
-43.612
-42.381
-41.223
-40.137
-39.125
-38.186
-37.319
-36.523
-35.798
-35.142
-34.554
-34.031
-33.571
-33.173
-32.834
-32.552
-32.326
-32.154
-32.035
-31.968
-31.95
-31.983
-32.063
-32.192
-32.367
-32.588
-32.854
-33.163
-33.514
-33.906
-34.338
-34.806
-35.31
-35.846
-36.413
-37.007
-37.625
-38.263
-38.917
-39.584
-40.259
-40.939
-41.619
-42.296
-42.966
-43.624
-44.268
-44.891
-45.492
-46.064
-46.604
-47.108
-47.57
-47.986
-48.353
-48.665
-48.92
-49.113
-49.242
-49.303
-49.294
-49.213
-49.059
-48.831
-48.528
-48.151
-47.701
-47.18
-46.591
-45.937
-45.222
-44.449
-43.624
-42.751
-41.836
-40.883
-39.897
-38.883
-37.847
-36.794
-35.73
-34.661
-33.592
-32.53
-31.48
-30.45
-29.445
-28.471
-27.534
-26.64
-25.794
-25.002
-24.267
-23.593
-22.983
-22.44
-21.968
-21.568
-21.239
-20.981
-20.795
-20.677
-20.625
-20.637
-20.708
-20.833
-21.009
-21.232
-21.498
-21.803
-22.141
-22.51
-22.905
-23.325
-23.765
-24.223
-24.694
-25.176
-25.667
-26.166
-26.671
-27.181
-27.697
-28.221
-28.76
-29.318
-29.903
-30.521
-31.181
-31.891
-32.662
-33.503
-34.418
-35.413
-36.494
-37.673
-38.962
-40.374
-41.917
-43.601
-45.433
-47.422
-49.577
-51.898
-54.372
-56.996
-59.765
-62.688
-65.79
-69.085
-72.578
-76.274
-80.168
-84.25
-88.51
-92.911
-97.391
-101.895
-106.372
-110.783
-115.119
-119.342
-123.401
-127.24
-130.771
-133.928
-136.673
-138.951
-140.738
-142.057
-142.951
-143.509
-143.868
-144.138
-144.454
-144.958
-145.758
-146.982
-148.722
-151.123
-154.482
-158.981
-164.615
-171.236
-178.386
-185.499
-192.154
-197.695
-201.155
-201.941
-199.935
-195.551
-190.065
-185.098
-182.068
-182.537
-188.469
-199.623
-213.247
-226.727
-236.207
-241.675
-247.955
-253.705
-252.986
-233.353
-176.138
-74.693
65.972
233.624
408.699
578.236
735.45
869.677
969.367
1021.401
1011.912
939.614
812.506
640.092
438.08
220.653
2.049
-194.835
-350.376
-453.953
-504.016
-514.547
-504.844
-486.036
-463.561
-436.136
-398.562
-352.409
-303.303
-256.902
-219.685
-194.653
-180.967
-177.048
-180.576
-188.556
-198.391
-208.037
-215.299
-218.545
-217.386
-211.895
-202.619
-190.845
-177.828
-164.692
-152.829
-143.184
-136.034
-131.467
-129.223
-128.782
-129.707
-131.429
-133.216
-134.618
-135.42
-135.515
-134.985
-133.891
-132.224
-130.067
-127.542
-124.728
-121.699
-118.493
-115.107
-111.595
-108.043
-104.545
-101.214
-98.109
-95.253
-92.66
-90.326
-88.24
-86.39
-84.73
-83.205
-81.769
-80.381
-79.002
-77.6
-76.123
-74.514
-72.718
-70.677
-68.341
-65.669
-62.619
-59.153
-55.24
-50.853
-45.97
-40.574
-34.649
-28.176
-21.142
-13.535
-5.349
3.416
12.759
22.673
33.146
44.16
55.693
67.718
80.204
93.116
106.416
120.059
133.998
148.183
162.56
177.072
191.659
206.258
220.804
235.232
249.474
263.463
277.13
290.406
303.225
315.521
327.23
338.29
348.643
358.231
367.003
374.91
381.908
387.957
393.023
397.074
400.087
402.043
402.927
402.732
401.457
399.103
395.681
391.204
385.693
379.172
371.672
363.228
353.881
343.674
332.658
320.884
308.41
295.295
281.602
267.395
252.741
237.708
222.366
206.783
191.028
175.171
159.279
143.417
127.651
112.043
96.651
81.533
66.742
52.329
38.341
24.82
11.807
-0.664
-12.56
-23.854
-34.524
-44.55
-53.918
-62.618
-70.642
-77.988
-84.66
-90.661
-96.003
-100.698
-104.763
-108.217
-111.084
-113.387
-115.156
-116.418
-117.205
-117.548
-117.481
-117.037
-116.249
-115.152
-113.777
-112.159
-110.33
-108.322
-106.164
-103.887
-101.519
-99.088
-96.618
-94.135
-91.662
-89.218
-86.825
-84.501
-82.26
-80.119
-78.089
-76.182
-74.406
-72.769
-71.275
-69.93
-68.734
-67.688
-66.793
-66.045
-65.443
-64.982
-64.659
-64.467
-64.401
-64.456
-64.625
-64.901
-65.279
-65.75
-66.309
-66.949
-67.663
-68.444
-69.284
-70.178
-71.119
-72.098
-73.109
-74.146
-75.2
-76.266
-77.337
-78.406
-79.468
-80.515
-81.544
-82.548
-83.522
-84.461
-85.361
-86.217
-87.025
-87.781
-88.48
-89.119
-89.695
-90.202
-90.64
-91.002
-91.288
-91.492
-91.613
-91.648
-91.594
-91.449
-91.213
-90.883
-90.459
-89.942
-89.332
-88.631
-87.839
-86.96
-85.996
-84.95
-83.827
-82.63
-81.364
-80.034
-78.646
-77.207
-75.722
-74.198
-72.644
-71.067
-69.475
-67.876
-66.278
-64.691
-63.122
-61.58
-60.075
-58.615
-57.21
-55.867
-54.595
-53.403
-52.298
-51.286
-50.374
-49.568
-48.873
-48.292
-47.83
-47.489
-47.272
-47.18
-47.215
-47.376
-47.663
-48.074
-48.607
-49.258
-50.023
-50.896
-51.872
-52.941
-54.098
-55.333
-56.638
-58.002
-59.417
-60.871
-62.353
-63.852
-65.357
-66.856
-68.336
-69.785
-71.192
-72.547
-73.84
-75.06
-76.199
-77.249
-78.203
-79.054
-79.796
-80.424
-80.93
-81.313
-81.571
-81.702
-81.707
-81.588
-81.348
-80.999
-80.551
-80.017
-79.41
-78.741
-78.028
-77.288
-76.541
-75.805
-75.096
-74.427
-73.815
-73.283
-72.852
-72.539
-72.359
-72.319
-72.429
-72.702
-73.149
-73.782
-74.597
-75.588
-76.756
-78.108
-79.668
-81.452
-83.467
-85.708
-88.172
-90.853
-93.745
-96.832
-100.063
-103.389
-106.754
-110.099
-113.401
-116.629
-119.754
-122.763
-125.589
-128.153
-130.396
-132.249
-133.679
-134.74
-135.435
-135.724
-135.744
-135.69
-135.923
-137.025
-139.27
-142.624
-147.089
-152.681
-159.314
-166.805
-174.289
-180.173
-183.421
-183.626
-180.677
-174.788
-166.072
-154.858
-142.787
-132.629
-126.94
-127.726
-136.036
-152.103
-174.92
-201.522
-227.902
-250.14
-267.917
-282.966
-293.522
-292.226
-263.379
-192.263
-76.761
74.133
240.604
405.025
563.877
717.556
865.156
996.765
1088.14
1117.399
1075.569
967.729
812.261
626.983
422.961
210.3
1.079
-184.672
-324.729
-407.946
-436.492
-426.765
-399.742
-367.254
-333.664
-296.981
-253.038
-204.297
-155.874
-112.959
-81.339
-62.598
-55.034
-56.576
-64.14
-74.379
-85.383
-95.388
-102.038
-104.276
-101.989
-95.313
-85.335
-73.494
-60.681
-47.972
-36.805
-27.836
-21.313
-17.331
-15.393
-14.972
-15.696
-16.933
-18.024
-18.632
-18.542
-17.685
-16.183
-14.067
-11.359
-8.176
-4.619
-0.766
3.311
7.597
12.068
16.65
21.251
25.756
30.08
34.186
38.05
41.661
45.025
48.144
51.044
53.778
56.382
58.891
61.336
63.74
66.142
68.592
71.138
73.831
76.717
79.836
83.222
86.913
90.936
95.316
100.073
105.219
110.773
116.75
123.167
130.036
137.365
145.161
153.423
162.15
171.335
180.966
191.024
201.489
212.334
223.532
235.048
246.847
258.887
271.125
283.512
295.998
308.53
321.052
333.505
345.829
357.964
369.849
381.421
392.619
403.381
413.647
423.36
432.462
440.898
448.617
455.569
461.709
466.994
471.387
474.854
477.365
478.897
479.43
478.95
477.451
474.929
471.386
466.831
461.277
454.744
447.255
438.84
429.532
419.37
408.397
396.66
384.212
371.105
357.398
343.15
328.423
313.282
297.791
282.017
266.026
249.884
233.659
217.414
201.216
185.127
169.207
153.516
138.11
123.042
108.362
94.116
80.35
67.1
54.405
42.294
30.796
19.935
9.728
0.192
-8.662
-16.829
-24.306
-31.093
-37.197
-42.625
-47.39
-51.506
-54.993
-57.87
-60.162
-61.893
-63.091
-63.785
-64.004
-63.781
-63.146
-62.133
-60.774
-59.103
-57.15
-54.949
-52.53
-49.925
-47.162
-44.272
-41.28
-38.213
-35.095
-31.951
-28.802
-25.669
-22.569
-19.52
-16.538
-13.636
-10.827
-8.122
-5.529
-3.055
-0.708
1.507
3.588
5.531
7.334
8.998
10.521
11.904
13.15
14.259
15.233
16.076
16.788
17.374
17.835
18.173
18.393
18.495
18.482
18.357
18.123
17.782
17.336
16.788
16.141
15.397
14.56
13.632
12.615
11.512
10.327
9.06
7.716
6.298
4.807
3.247
1.622
-0.066
-1.812
-3.614
-5.466
-7.365
-9.305
-11.283
-13.292
-15.327
-17.382
-19.449
-21.522
-23.593
-25.655
-27.701
-29.722
-31.712
-33.662
-35.567
-37.418
-39.209
-40.934
-42.587
-44.162
-45.652
-47.054
-48.361
-49.57
-50.676
-51.677
-52.569
-53.35
-54.017
-54.57
-55.008
-55.329
-55.536
-55.627
-55.606
-55.474
-55.235
-54.894
-54.455
-53.925
-53.31
-52.619
-51.859
-51.04
-50.171
-49.261
-48.32
-47.359
-46.388
-45.418
-44.46
-43.524
-42.623
-41.767
-40.968
-40.237
-39.583
-39.018
-38.551
-38.192
-37.949
-37.832
-37.849
-38.007
-38.315
-38.779
-39.404
-40.196
-41.158
-42.292
-43.599
-45.08
-46.73
-48.548
-50.528
-52.664
-54.952
-57.381
-59.944
-62.631
-65.43
-68.329
-71.315
-74.376
-77.494
-80.655
-83.843
-87.042
-90.238
-93.413
-96.552
-99.638
-102.658
-105.596
-108.438
-111.17
-113.777
-116.245
-118.564
-120.723
-122.714
-124.527
-126.159
-127.606
-128.871
-129.958
-130.874
-131.623
-132.216
-132.664
-132.981
-133.177
-133.262
-133.248
-133.145
-132.972
-132.748
-132.492
-132.222
-131.957
-131.713
-131.51
-131.367
-131.297
-131.299
-131.381
-131.552
-131.832
-132.26
-132.864
-133.661
-134.671
-135.902
-137.359
-139.043
-140.927
-142.961
-145.098
-147.292
-149.51
-151.745
-153.964
-156.12
-158.158
-159.991
-161.557
-162.814
-163.711
-164.219
-164.362
-164.182
-163.772
-163.271
-162.793
-162.474
-162.455
-162.844
-163.766
-165.305
-167.594
-170.927
-175.493
-181.301
-188.219
-195.801
-203.481
-210.84
-217.215
-221.587
-223.283
-222.106
-218.405
-213.422
-208.778
-205.876
-206.349
-212.421
-224.027
-238.31
-252.332
-261.726
-266.48
-272.512
-279.791
-283.035
-269.155
-217.439
-118.726
23.987
199.018
387.584
576.017
752.678
901.934
1004.433
1041.505
1005.104
902.062
752.1
575.292
384.377
188.026
-6.641
-184.955
-327.245
-421.924
-467.865
-477.685
-470.999
-459.297
-446.129
-428.922
-402.364
-367.184
-327.724
-288.111
-252.468
-222.484
-198.564
-181.169
-169.696
-162.869
-159.473
-158.814
-160.499
-163.905
-167.669
-170.027
-169.942
-167.311
-162.484
-155.805
-147.529
-137.985
-128.004
-118.806
-111.137
-105.208
-100.898
-97.813
-95.607
-94.056
-92.772
-91.249
-89.2
-86.487
-83.103
-79.224
-74.977
-70.429
-65.68
-60.826
-55.933
-51.08
-46.335
-41.744
-37.388
-33.321
-29.572
-26.168
-23.106
-20.372
-17.948
-15.789
-13.836
-12.046
-10.382
-8.816
-7.322
-5.863
-4.389
-2.852
-1.199
0.623
2.663
4.974
7.606
10.595
13.977
17.775
22.007
26.691
31.849
37.503
43.68
50.411
57.714
65.597
74.056
83.071
92.605
102.601
112.999
123.726
134.725
145.948
157.367
168.973
180.757
192.715
204.816
217.005
229.23
241.445
253.612
265.704
277.721
289.684
301.632
313.62
325.67
337.763
349.827
361.738
373.342
384.461
394.949
404.699
413.612
421.603
428.588
434.482
439.176
442.548
444.449
444.701
443.178
439.811
434.605
427.647
419.077
409.092
397.866
385.547
372.271
358.15
343.294
327.807
311.811
295.436
278.848
262.252
245.824
229.71
213.999
198.723
183.867
169.374
155.197
141.303
127.676
114.327
101.276
88.55
76.182
64.203
52.62
41.409
30.553
20.032
9.849
0.032
-9.38
-18.328
-26.76
-34.634
-41.918
-48.601
-54.682
-60.176
-65.105
-69.504
-73.403
-76.821
-79.779
-82.296
-84.395
-86.107
-87.464
-88.505
-89.267
-89.792
-90.115
-90.272
-90.293
-90.205
-90.03
-89.786
-89.49
-89.158
-88.808
-88.457
-88.121
-87.814
-87.55
-87.34
-87.196
-87.125
-87.132
-87.219
-87.39
-87.643
-87.978
-88.392
-88.882
-89.444
-90.072
-90.761
-91.506
-92.3
-93.136
-94.006
-94.905
-95.823
-96.755
-97.694
-98.632
-99.564
-100.483
-101.386
-102.267
-103.123
-103.95
-104.746
-105.508
-106.232
-106.918
-107.563
-108.165
-108.724
-109.239
-109.71
-110.138
-110.523
-110.866
-111.168
-111.431
-111.657
-111.846
-112
-112.12
-112.208
-112.264
-112.29
-112.287
-112.256
-112.196
-112.108
-111.993
-111.85
-111.679
-111.479
-111.25
-110.99
-110.699
-110.375
-110.017
-109.625
-109.195
-108.729
-108.224
-107.681
-107.098
-106.475
-105.813
-105.111
-104.369
-103.587
-102.766
-101.907
-101.01
-100.076
-99.107
-98.104
-97.07
-96.007
-94.918
-93.805
-92.671
-91.522
-90.359
-89.188
-88.013
-86.838
-85.669
-84.512
-83.372
-82.255
-81.166
-80.112
-79.098
-78.129
-77.211
-76.348
-75.545
-74.804
-74.131
-73.529
-73.002
-72.551
-72.18
-71.89
-71.685
-71.564
-71.528
-71.576
-71.709
-71.923
-72.217
-72.59
-73.038
-73.556
-74.142
-74.788
-75.491
-76.243
-77.037
-77.863
-78.712
-79.576
-80.444
-81.307
-82.155
-82.978
-83.766
-84.511
-85.205
-85.839
-86.407
-86.899
-87.308
-87.631
-87.861
-87.994
-88.027
-87.958
-87.787
-87.52
-87.16
-86.714
-86.189
-85.59
-84.928
-84.214
-83.454
-82.656
-81.826
-80.973
-80.11
-79.253
-78.419
-77.619
-76.869
-76.18
-75.567
-75.045
-74.62
-74.287
-74.05
-73.912
-73.89
-74.015
-74.307
-74.775
-75.43
-76.271
-77.296
-78.499
-79.852
-81.301
-82.804
-84.319
-85.819
-87.301
-88.735
-90.076
-91.271
-92.239
-92.924
-93.295
-93.308
-92.936
-92.199
-91.134
-89.823
-88.395
-86.946
-85.573
-84.405
-83.563
-83.177
-83.354
-84.24
-86.068
-88.989
-93.026
-97.968
-103.285
-108.382
-112.801
-115.955
-117.08
-115.657
-111.512
-105.271
-98.553
-92.948
-89.528
-89.535
-94.334
-104.576
-120.308
-138.597
-153.243
-160.422
-157.773
-144.459
-123.244
-89.634
-35.151
44.252
154.312
290.005
437.561
589.356
734.365
864.047
973.068
1047.712
1073.382
1038.69
938.617
778.097
572.746
346.368
122.567
-73.361
-221.921
-319.034
-368.702
-385.405
-387.401
-382.067
-370.754
-350.639
-317.038
-272.275
-222.561
-173.667
-131.156
-97.996
-74.921
-61.745
-57.096
-58.917
-64.792
-72.807
-81.415
-88.629
-92.846
-93.272
-89.627
-82.46
-72.938
-61.923
-50.336
-39.485
-30.256
-23.099
-18.229
-15.38
-14.054
-13.84
-14.173
-14.393
-14.112
-13.13
-11.37
-8.925
-5.871
-2.259
1.786
6.13
10.685
15.386
20.207
25.127
30.086
34.987
39.732
44.248
48.505
52.492
56.209
59.665
62.872
65.867
68.704
71.423
74.055
76.626
79.16
81.696
84.281
86.96
89.78
92.785
96.019
99.521
103.329
107.471
111.968
116.839
122.1
127.767
133.857
140.382
147.344
154.753
162.62
170.956
179.771
189.053
198.764
208.871
219.344
230.146
241.238
252.569
264.068
275.692
287.422
299.236
311.119
323.025
334.876
346.603
358.132
369.413
380.434
391.158
401.523
411.496
421.053
430.186
438.923
447.214
454.933
461.972
468.221
473.612
478.131
481.748
484.418
486.098
486.721
486.254
484.705
482.041
478.2
473.122
466.711
458.982
450.066
440.069
429.097
417.23
404.504
390.986
376.779
361.967
346.631
330.839
314.631
298.098
281.372
264.585
247.89
231.364
214.991
198.781
182.759
166.953
151.424
136.203
121.291
106.72
92.544
78.814
65.591
52.903
40.738
29.093
17.953
7.332
-2.724
-12.184
-21.032
-29.256
-36.853
-43.814
-50.122
-55.782
-60.825
-65.28
-69.18
-72.55
-75.404
-77.762
-79.651
-81.099
-82.142
-82.811
-83.137
-83.153
-82.893
-82.392
-81.686
-80.807
-79.776
-78.618
-77.355
-76.012
-74.612
-73.175
-71.719
-70.263
-68.824
-67.419
-66.064
-64.77
-63.549
-62.408
-61.355
-60.397
-59.538
-58.781
-58.129
-57.582
-57.143
-56.812
-56.589
-56.472
-56.461
-56.554
-56.751
-57.05
-57.45
-57.949
-58.546
-59.24
-60.032
-60.921
-61.907
-62.991
-64.173
-65.453
-66.834
-68.314
-69.896
-71.578
-73.361
-75.246
-77.234
-79.324
-81.517
-83.813
-86.212
-88.714
-91.318
-94.023
-96.826
-99.724
-102.716
-105.796
-108.961
-112.204
-115.521
-118.903
-122.342
-125.832
-129.361
-132.92
-136.497
-140.082
-143.661
-147.223
-150.754
-154.242
-157.672
-161.032
-164.309
-167.489
-170.56
-173.509
-176.323
-178.991
-181.5
-183.84
-185.999
-187.968
-189.738
-191.299
-192.644
-193.766
-194.659
-195.318
-195.738
-195.918
-195.854
-195.547
-194.997
-194.206
-193.176
-191.912
-190.42
-188.705
-186.775
-184.639
-182.307
-179.787
-177.093
-174.235
-171.225
-168.077
-164.804
-161.419
-157.937
-154.372
-150.738
-147.051
-143.326
-139.578
-135.823
-132.076
-128.353
-124.669
-121.039
-117.477
-113.999
-110.618
-107.347
-104.199
-101.187
-98.321
-95.611
-93.069
-90.701
-88.517
-86.522
-84.721
-83.119
-81.72
-80.525
-79.534
-78.747
-78.161
-77.775
-77.586
-77.59
-77.78
-78.151
-78.695
-79.402
-80.265
-81.271
-82.409
-83.664
-85.024
-86.474
-88.001
-89.589
-91.222
-92.885
-94.564
-96.242
-97.903
-99.533
-101.113
-102.631
-104.071
-105.423
-106.674
-107.814
-108.836
-109.734
-110.509
-111.157
-111.679
-112.073
-112.342
-112.492
-112.531
-112.466
-112.3
-112.039
-111.69
-111.266
-110.78
-110.244
-109.662
-109.041
-108.39
-107.723
-107.06
-106.408
-105.762
-105.121
-104.484
-103.861
-103.281
-102.762
-102.306
-101.918
-101.605
-101.373
-101.237
-101.184
-101.173
-101.159
-101.088
-100.928
-100.686
-100.358
-99.953
-99.467
-98.835
-98.013
-96.968
-95.648
-94.057
-92.208
-90.042
-87.639
-85.234
-83.113
-81.781
-81.688
-82.894
-85.412
-89.244
-94.111
-99.75
-105.656
-110.586
-113.391
-113.602
-110.983
-105.732
-98.469
-89.471
-79.427
-70.296
-64.153
-62.445
-66.327
-76.067
-91.307
-112.391
-137.697
-162.509
-182.4
-192.9
-193.738
-190.148
-182.767
-167.749
-134.907
-68.376
37.685
179.317
345.348
519.216
689.35
846.101
978.067
1069.748
1104.255
1074.957
985.1
850.435
691.883
518.243
334.494
144.506
-46.71
-219.579
-353.632
-438.763
-473.391
-470.756
-448.823
-417.514
-382.476
-343.865
-298.852
-250.226
-202.365
-159.441
-126.879
-106.428
-96.883
-96.839
-103.565
-113.872
-125.864
-137.508
-146.165
-150.548
-150.262
-145.225
-136.394
-125.118
-112.306
-99.197
-87.362
-77.571
-70.163
-65.242
-62.341
-60.942
-60.623
-60.731
-60.581
-59.818
-58.252
-55.844
-52.718
-48.931
-44.535
-39.652
-34.4
-28.87
-23.123
-17.189
-11.098
-4.923
1.233
7.262
13.086
18.668
23.99
29.051
33.857
38.416
42.759
46.936
50.978
54.916
58.774
62.571
66.336
70.113
73.947
77.885
81.976
86.261
90.777
95.565
100.659
106.086
111.873
118.032
124.575
131.518
138.882
146.689
154.971
163.74
172.995
182.734
192.949
203.612
214.684
226.102
237.773
249.626
261.611
273.69
285.85
298.07
310.322
322.585
334.839
347.065
359.257
371.39
383.42
395.34
407.164
418.949
430.808
442.794
454.897
467.081
479.266
491.35
503.231
514.756
525.731
535.989
545.371
553.759
561.084
567.228
572.042
575.341
576.887
576.516
574.153
569.748
563.302
554.87
544.533
532.459
518.903
504.075
488.151
471.277
453.545
435.091
416.093
396.741
377.256
357.822
338.567
319.612
301.063
282.971
265.362
248.189
231.333
214.719
198.315
182.108
166.127
150.377
134.845
119.522
104.401
89.478
74.759
60.242
45.918
31.803
17.93
4.357
-8.824
-21.55
-33.787
-45.511
-56.715
-67.4
-77.56
-87.208
-96.37
-105.069
-113.323
-121.147
-128.549
-135.547
-142.168
-148.442
-154.404
-160.087
-165.515
-170.716
-175.711
-180.521
-185.164
-189.651
-193.988
-198.183
-202.245
-206.186
-210.015
-213.742
-217.375
-220.92
-224.385
-227.777
-231.096
-234.347
-237.526
-240.633
-243.667
-246.624
-249.499
-252.29
-254.99
-257.594
-260.098
-262.496
-264.782
-266.951
-268.997
-270.914
-272.699
-274.348
-275.857
-277.224
-278.446
-279.525
-280.461
-281.255
-281.91
-282.428
-282.813
-283.068
-283.198
-283.207
-283.101
-282.884
-282.562
-282.142
-281.631
-281.036
-280.365
-279.626
-278.827
-277.977
-277.082
-276.153
-275.195
-274.219
-273.23
-272.237
-271.248
-270.269
-269.306
-268.366
-267.454
-266.576
-265.733
-264.931
-264.172
-263.456
-262.785
-262.159
-261.579
-261.042
-260.547
-260.094
-259.678
-259.299
-258.953
-258.637
-258.348
-258.081
-257.832
-257.598
-257.374
-257.155
-256.936
-256.713
-256.481
-256.234
-255.968
-255.677
-255.355
-254.998
-254.599
-254.154
-253.658
-253.106
-252.494
-251.817
-251.073
-250.257
-249.369
-248.404
-247.361
-246.24
-245.038
-243.755
-242.391
-240.945
-239.418
-237.81
-236.122
-234.355
-232.511
-230.591
-228.599
-226.535
-224.404
-222.209
-219.952
-217.639
-215.275
-212.863
-210.409
-207.92
-205.401
-202.859
-200.3
-197.731
-195.158
-192.588
-190.027
-187.481
-184.956
-182.458
-179.992
-177.562
-175.174
-172.833
-170.542
-168.306
-166.127
-164.008
-161.951
-159.957
-158.028
-156.163
-154.361
-152.621
-150.941
-149.32
-147.752
-146.234
-144.76
-143.324
-141.92
-140.539
-139.173
-137.812
-136.447
-135.067
-133.664
-132.227
-130.745
-129.209
-127.609
-125.937
-124.183
-122.341
-120.401
-118.357
-116.203
-113.934
-111.547
-109.04
-106.41
-103.659
-100.791
-97.814
-94.734
-91.559
-88.301
-84.971
-81.582
-78.148
-74.68
-71.192
-67.696
-64.207
-60.746
-57.335
-53.992
-50.737
-47.589
-44.565
-41.688
-38.971
-36.42
-34.041
-31.841
-29.835
-28.053
-26.523
-25.258
-24.27
-23.572
-23.158
-23.025
-23.152
-23.488
-23.988
-24.61
-25.318
-26.096
-26.924
-27.756
-28.535
-29.192
-29.655
-29.883
-29.832
-29.453
-28.746
-27.751
-26.554
-25.295
-24.078
-22.986
-22.135
-21.633
-21.605
-22.197
-23.486
-25.611
-28.85
-33.336
-39.043
-45.787
-52.994
-60.014
-66.363
-71.296
-73.869
-73.575
-70.339
-64.67
-57.988
-51.913
-47.762
-47.067
-51.699
-61.367
-73.427
-85.002
-91.616
-92.565
-92.184
-89.636
-80.464
-54.197
6.68
109.955
252.874
425.253
608.266
785.45
945.778
1078.14
1171.801
1219.833
1215.33
1154.675
1042.362
879.902
673.598
441.281
202.634
-12.024
-174.332
-277.217
-323.883
-330.848
-318.488
-291.154
-249.894
-196.567
-135.036
-78.519
-37.84
-13.953
-0.681
10.63
25.235
42.172
55.509
61.283
59.834
53.425
46.397
42.447
42.403
46.172
53.391
63.191
74.822
87.777
100.993
113.036
123.202
131.18
136.864
140.659
142.966
144.103
144.677
145.361
146.524
148.374
150.966
154.182
157.976
162.316
167.094
172.201
177.55
183.078
188.762
194.577
200.46
206.315
212.036
217.547
222.811
227.807
232.533
236.994
241.198
245.179
248.988
252.658
256.221
259.706
263.134
266.543
269.978
273.483
277.103
280.88
284.848
289.041
293.488
298.209
303.224
308.546
314.184
320.148
326.451
333.103
340.111
347.48
355.212
363.305
371.755
380.553
389.685
399.134
408.878
418.895
429.159
439.638
450.3
461.109
472.026
483.011
494.021
505.009
515.928
526.728
537.36
547.774
557.917
567.739
577.188
586.217
594.774
602.814
610.291
617.16
623.38
628.912
633.717
637.763
641.019
643.457
645.053
645.787
645.644
644.612
642.685
639.86
636.138
631.525
626.032
619.674
612.468
604.439
595.612
586.018
575.693
564.672
552.997
540.712
527.861
514.494
500.661
486.412
471.8
456.879
441.704
426.328
410.808
395.196
379.549
363.917
348.355
332.912
317.637
302.577
287.777
273.277
259.119
245.337
231.965
219.032
206.565
194.587
183.116
172.169
161.757
151.889
142.569
133.798
125.574
117.891
110.74
104.11
97.984
92.345
87.174
82.446
78.137
74.219
70.665
67.443
64.521
61.867
59.447
57.226
55.17
53.243
51.412
49.641
47.898
46.149
44.364
42.511
40.563
38.491
36.271
33.878
31.292
28.492
25.462
22.186
18.651
14.848
10.767
6.404
1.755
-3.181
-8.403
-13.907
-19.687
-25.735
-32.042
-38.595
-45.38
-52.382
-59.583
-66.965
-74.508
-82.191
-89.991
-97.887
-105.853
-113.868
-121.906
-129.943
-137.954
-145.917
-153.806
-161.598
-169.27
-176.799
-184.165
-191.347
-198.323
-205.077
-211.59
-217.845
-223.828
-229.526
-234.925
-240.015
-244.787
-249.233
-253.347
-257.124
-260.562
-263.66
-266.416
-268.833
-270.914
-272.663
-274.086
-275.189
-275.981
-276.47
-276.667
-276.583
-276.23
-275.619
-274.765
-273.681
-272.382
-270.882
-269.197
-267.342
-265.332
-263.185
-260.914
-258.537
-256.069
-253.526
-250.922
-248.271
-245.589
-242.889
-240.184
-237.486
-234.807
-232.158
-229.55
-226.992
-224.493
-222.06
-219.702
-217.423
-215.229
-213.125
-211.114
-209.199
-207.381
-205.662
-204.042
-202.52
-201.094
-199.763
-198.522
-197.37
-196.3
-195.308
-194.39
-193.537
-192.745
-192.006
-191.314
-190.66
-190.038
-189.439
-188.857
-188.283
-187.71
-187.13
-186.535
-185.919
-185.274
-184.592
-183.867
-183.094
-182.265
-181.377
-180.423
-179.399
-178.303
-177.131
-175.881
-174.552
-173.142
-171.654
-170.086
-168.442
-166.723
-164.933
-163.073
-161.15
-159.169
-157.134
-155.053
-152.931
-150.777
-148.597
-146.4
-144.196
-141.993
-139.801
-137.629
-135.488
-133.389
-131.345
-129.366
-127.465
-125.654
-123.948
-122.359
-120.9
-119.586
-118.428
-117.44
-116.635
-116.026
-115.625
-115.443
-115.493
-115.787
-116.342
-117.172
-118.288
-119.705
-121.435
-123.491
-125.883
-128.617
-131.695
-135.119
-138.889
-143.011
-147.484
-152.309
-157.479
-162.989
-168.831
-174.997
-181.475
-188.242
-195.271
-202.536
-210.017
-217.708
-225.606
-233.706
-241.99
-250.438
-259.03
-267.742
-276.541
-285.373
-294.166
-302.85
-311.361
-319.652
-327.678
-335.381
-342.692
-349.52
-355.769
-361.359
-366.225
-370.323
-373.63
-376.149
-377.904
-378.944
-379.377
-379.335
-378.958
-378.378
-377.707
-377.018
-376.471
-376.375
-376.949
-378.263
-380.206
-382.384
-384.386
-385.944
-386.582
-385.524
-382.211
-376.503
-368.825
-360.374
-352.582
-346.661
-344.02
-346.551
-354.195
-364.322
-373.929
-378.854
-379.2
-380.843
-384.792
-387.077
-375.519
-329.453
-238.405
-104.046
62.331
239.596
411.734
569.201
700.773
796.472
845.62
836.541
769.117
650.619
489.867
304.297
108.404
-82.755
-247.298
-374.418
-459.499
-505.853
-530.049
-542.103
-545.781
-541.064
-521.577
-486.941
-442.341
-393.473
-347.159
-307.035
-274.37
-250.964
-237.227
-232.45
-235.435
-244.122
-256.727
-272.024
-288.15
-302.507
-313.341
-319.896
-322.145
-320.882
-316.867
-310.593
-303.086
-295.896
-290.051
-286.018
-283.891
-283.211
-283.502
-284.508
-285.773
-286.693
-286.932
-286.314
-284.788
-282.528
-279.678
-276.292
-272.475
-268.332
-263.911
-259.283
-254.503
-249.601
-244.654
-239.729
-234.866
-230.103
-225.456
-220.92
-216.496
-212.164
-207.886
-203.639
-199.406
-195.171
-190.929
-186.663
-182.345
-177.945
-173.427
-168.754
-163.893
-158.806
-153.463
-147.842
-141.923
-135.692
-129.142
-122.259
-115.033
-107.461
-99.532
-91.228
-82.536
-73.439
-63.94
-54.068
-43.848
-33.3
-22.454
-11.339
0.004
11.516
23.166
34.945
46.843
58.855
70.948
83.056
95.12
107.075
118.88
130.533
142.004
153.238
164.208
174.896
185.299
195.448
205.297
214.721
223.613
231.865
239.406
246.221
252.274
257.519
261.906
265.362
267.844
269.354
269.849
269.258
267.51
264.498
260.225
254.81
248.349
240.934
232.636
223.474
213.505
202.822
191.496
179.597
167.183
154.284
140.981
127.398
113.658
99.91
86.221
72.572
58.968
45.429
31.983
18.687
5.573
-7.358
-20.074
-32.517
-44.633
-56.358
-67.659
-78.542
-89.005
-99.056
-108.675
-117.808
-126.417
-134.48
-141.974
-148.889
-155.211
-160.912
-165.99
-170.47
-174.372
-177.722
-180.539
-182.831
-184.613
-185.906
-186.734
-187.127
-187.116
-186.726
-185.989
-184.936
-183.602
-182.022
-180.225
-178.235
-176.075
-173.769
-171.339
-168.81
-166.202
-163.531
-160.816
-158.073
-155.318
-152.563
-149.818
-147.091
-144.385
-141.706
-139.053
-136.427
-133.825
-131.243
-128.675
-126.114
-123.553
-120.983
-118.394
-115.775
-113.114
-110.4
-107.621
-104.764
-101.817
-98.769
-95.607
-92.322
-88.903
-85.341
-81.628
-77.757
-73.724
-69.524
-65.156
-60.616
-55.906
-51.027
-45.983
-40.779
-35.423
-29.922
-24.286
-18.527
-12.658
-6.692
-0.643
5.471
11.635
17.832
24.044
30.251
36.437
42.581
48.665
54.671
60.579
66.372
72.032
77.543
82.889
88.053
93.024
97.787
102.331
106.646
110.723
114.556
118.138
121.466
124.539
127.355
129.916
132.226
134.288
136.109
137.696
139.058
140.205
141.147
141.898
142.471
142.879
143.138
143.263
143.27
143.176
142.996
142.747
142.446
142.109
141.752
141.393
141.047
140.73
140.455
140.239
140.095
140.035
140.072
140.215
140.474
140.858
141.373
142.027
142.824
143.767
144.861
146.106
147.506
149.059
150.765
152.622
154.628
156.778
159.07
161.499
164.059
166.745
169.552
172.475
175.508
178.644
181.877
185.198
188.601
192.077
195.619
199.218
202.864
206.548
210.263
214
217.751
221.505
225.256
228.993
232.706
236.388
240.024
243.6
247.105
250.524
253.847
257.059
260.145
263.09
265.881
268.511
270.972
273.255
275.345
277.229
278.9
280.351
281.581
282.583
283.347
283.865
284.136
284.17
283.982
283.579
282.952
282.081
280.957
279.581
277.961
276.1
273.999
271.661
269.106
266.391
263.572
260.708
257.847
254.998
252.18
249.428
246.774
244.301
242.103
240.214
238.668
237.499
236.656
236.142
236.01
236.068
236.012
235.557
234.318
232.173
229.345
225.793
221.199
215.593
209.228
202.61
196.775
192.124
188.239
185.14
183.227
182.623
183.352
184.715
184.686
182.014
176.72
168.373
156.51
140.917
120.863
98.238
78.893
67.696
68.289
80.226
97.053
116.248
140.928
180.859
251.613
360.506
504.074
669.587
837.24
992.248
1125.185
1227.445
1291.864
1306.659
1258.972
1143.881
962.163
728.247
470.335
218.961
8.798
-136.587
-215.84
-240.203
-235.016
-225.694
-221.312
-221.839
-219.882
-206.378
-181.884
-151.877
-121.204
-93.734
-70.018
-48.523
-28.947
-12.127
1.915
13.702
22.994
29.355
32.52
32.201
29.422
26.472
24.533
23.917
25.058
28.035
32.906
39.86
48.182
56.416
63.741
69.858
74.733
78.764
82.196
85.073
87.734
90.698
94.285
98.663
103.799
109.45
115.457
121.742
128.202
134.742
141.26
147.646
153.811
159.694
165.248
170.442
175.25
179.654
183.651
187.251
190.493
193.438
196.13
198.607
200.899
203.027
205.026
206.944
208.824
210.712
212.648
214.669
216.816
219.13
221.643
224.381
227.363
230.605
234.13
237.963
242.133
246.663
251.576
256.894
262.634
268.813
275.436
282.502
290.001
297.925
306.267
315.021
324.179
333.725
343.644
353.921
364.537
375.468
386.681
398.128
409.766
421.569
433.523
445.624
457.888
470.32
482.921
495.711
508.688
521.832
535.126
548.513
561.94
575.386
588.814
602.215
615.603
628.942
642.198
655.364
668.311
680.912
693.204
705.14
716.734
728.119
739.191
749.874
760.398
770.912
781.263
791.395
801.055
809.944
818.517
827.262
836.281
845.792
856.19
867.769
881.145
896.911
914.595
933.609
953.693
974.477
995.727
1017.36
1038.908
1059.869
1080.523
1101.15
1121.802
1142.633
1163.504
1184.127
1204.506
1224.681
1244.396
1263.504
1281.951
1299.598
1316.463
1332.583
1347.833
1362.101
1375.324
1387.408
1398.283
1407.921
1416.294
1423.456
1429.548
1434.729
1439.142
1442.883
1445.991
1448.498
1450.459
1451.897
1452.824
1453.26
1453.209
1452.651
1451.563
1449.862
1447.301
1443.564
1438.295
1431.005
1421.227
1408.605
1392.741
1373.319
1350.352
1323.691
1292.631
1256.66
1215.406
1167.985
1115.086
1057.445
993.237
922.617
844.18
754.508
656.209
551.848
447.139
354.323
278.394
217.73
162.761
93.574
-3.682
-131.115
-279.824
-430.237
-566.228
-680.843
-774.013
-852.153
-920.09
-978.61
-1027.101
-1063.742
-1088.252
-1102.918
-1111.321
-1117.15
-1123.403
-1131.818
-1143.109
-1157.76
-1176.357
-1199.039
-1224.939
-1252.678
-1280.616
-1307.644
-1333.44
-1357.808
-1380.382
-1400.766
-1418.995
-1435.582
-1451.377
-1466.856
-1481.945
-1496.384
-1509.881
-1522.422
-1534.041
-1544.525
-1553.497
-1560.668
-1565.936
-1569.334
-1570.971
-1570.807
-1568.708
-1564.613
-1558.519
-1550.523
-1540.759
-1529.365
-1516.502
-1502.295
-1486.849
-1470.27
-1452.62
-1433.932
-1414.262
-1393.655
-1372.144
-1349.875
-1327.02
-1303.736
-1280.241
-1256.676
-1233.102
-1209.645
-1186.385
-1163.237
-1140.151
-1117.056
-1093.817
-1070.545
-1047.344
-1023.994
-1000.285
-976.226
-951.721
-926.792
-901.479
-875.157
-847.186
-817.424
-785.695
-751.6
-714.867
-675.122
-632.027
-585.941
-537.465
-486.971
-434.559
-381.906
-330.535
-279.546
-229.278
-176.763
-118.44
-58.596
-0.003
52.757
93.449
126.882
157.055
186.334
219.521
251.846
278.514
300.504
316.367
330.423
347.99
364.781
378.318
384.483
377.498
362.624
344.382
325.877
312.058
299.723
285.644
269.171
248.324
224.442
199.14
172.194
143.931
114.377
83.43
51.612
19.324
-13.32
-46.172
-79.138
-112.103
-144.899
-177.425
-209.612
-241.408
-272.706
-303.337
-333.122
-361.87
-389.468
-416
-441.674
-466.628
-491.06
-515.128
-538.815
-562.534
-586.932
-611.932
-637.14
-662.43
-687.062
-711.835
-739.791
-770.461
-801.508
-829.639
-847.006
-852.86
-856.118
-866.466
-898.032
-957.923
-1034.573
-1111.75
-1171.663
-1200.333
-1203.531
-1195.417
-1187.587
-1189.915
-1200.642
-1211.895
-1220.994
-1226.726
-1231.071
-1238.327
-1249.407
-1264.499
-1284.033
-1306.92
-1331.737
-1357.377
-1382.394
-1405.866
-1427.322
-1443.382
-1448.683
-1439.824
-1415.8
-1381.401
-1344.583
-1306.215
-1259.616
-1190.632
-1085.205
-944.058
-781.631
-622.145
-486.533
-379.039
-294.562
-225.013
-172.537
-158.584
-208.992
-342.478
-560.761
-838.725
-1134.599
-1407.174
-1623.315
-1767.571
-1847.322
-1876.18
-1867.839
-1838.632
-1795.631
-1747.481
-1710.1
-1689.972
-1690.795
-1709.698
-1732.259
-1750.946
-1763.872
-1772.568
-1784.405
-1801.498
-1820.744
-1838.068
-1848.222
-1848.923
-1840.688
-1824.327
-1801.185
-1772.517
-1739.459
-1703.527
-1665.891
-1627.154
-1587.614
-1547.299
-1506.194
-1464.25
-1421.226
-1376.783
-1330.726
-1283.034
-1233.867
-1183.579
-1132.566
-1081.296
-1030.289
-980.027
-930.949
-883.321
-837.233
-792.623
-749.267
-706.974
-665.68
-625.38
-586.098
-548.165
-512.161
-478.724
-448.606
-422.343
-400.083
-381.744
-367.09
-355.196
-344.446
-333.096
-319.214
-300.921
-276.831
-245.964
-207.573
-162.034
-110.928
-56.153
-0.035
54.757
105.858
151.255
189.091
218.665
240.535
255.661
265.549
272.248
277.796
284.027
292.714
304.865
320.642
339.912
362.14
386.381
411.593
436.874
461.393
484.649
506.517
526.968
546.122
564.266
581.719
598.691
615.308
631.596
647.472
662.872
677.727
691.942
705.436
718.167
730.126
741.327
751.8
761.55
770.565
778.83
786.316
792.997
798.85
803.847
807.963
811.176
813.465
814.81
815.197
814.612
813.044
810.488
806.943
802.411
796.903
790.439
783.048
774.76
765.608
755.621
744.826
733.252
720.935
707.91
694.217
679.895
664.983
649.529
633.585
617.208
600.461
583.396
566.058
548.492
530.731
512.832
494.869
476.916
459.053
441.334
423.772
406.401
389.267
372.406
355.888
339.718
323.793
308.171
293.049
278.597
265.046
252.401
240.316
228.661
217.562
206.835
196.119
185.003
172.803
159.489
145.865
132.361
119.066
106.345
94.562
84.272
76.497
71.323
67.765
65.22
63.334
61.684
60.103
58.138
54.87
50.167
44.716
38.983
33.367
28.145
23.263
18.905
15.532
13.232
11.749
10.863
10.331
10.054
10.16
10.701
11.62
12.898
14.539
16.557
18.966
21.739
24.766
27.909
31.08
34.247
37.437
40.723
44.181
47.854
51.783
56.001
60.547
65.5
70.933
76.907
83.521
90.878
99.12
108.439
118.962
130.754
143.836
158.177
173.737
190.48
208.329
227.182
246.921
267.387
288.417
309.84
331.425
352.939
374.13
394.719
414.497
433.289
450.925
467.27
482.181
495.542
507.309
517.474
526.048
533.084
538.658
542.883
545.952
548.037
549.297
549.888
549.913
549.477
548.701
547.702
546.6
545.497
544.442
543.47
542.61
541.856
541.18
540.514
539.724
538.714
537.421
535.8
533.841
531.527
528.828
525.722
522.193
518.229
513.837
509.019
503.772
498.116
492.088
485.745
479.175
472.445
465.597
458.667
451.671
444.627
437.558
430.474
423.372
416.259
409.138
402.022
394.925
387.857
380.82
373.81
366.817
359.838
352.871
345.919
338.984
332.069
325.18
318.325
311.52
304.776
298.103
291.509
284.997
278.574
272.247
266.022
259.902
253.889
247.981
242.179
236.485
230.902
225.43
220.069
214.817
209.674
204.642
199.725
194.921
190.228
185.64
181.156
176.773
172.493
168.317
164.251
160.3
156.472
152.775
149.208
145.775
142.479
139.307
136.231
133.216
130.235
127.282
124.393
121.601
118.91
116.362
114.072
112.182
110.828
110.085
109.909
110.257
111.216
112.725
114.419
116.023
117.507
118.959
120.764
122.069
120.445
114.962
107.023
101.954
107.729
127.176
155.5
180.962
189.783
176.139
145.58
111.722
88.416
82.532
91.654
107.654
124.181
138.899
152.538
166.846
180.822
191.355
195.906
192.839
181.673
162.767
138.075
112.257
90.576
77.402
72.635
72.55
77.576
95.37
139.952
223.165
346.642
499.381
663.118
826.335
982.636
1126.662
1250.536
1334.132
1357.504
1312.976
1205.015
1052.178
873.53
679.612
478.772
279.343
96.653
-48.813
-145.82
-195.042
-207.454
-199.139
-177.859
-142.092
-91.958
-30.935
31.836
81.064
110.429
123.244
124.596
123.546
123.475
120.047
111.912
98.508
81.207
65.547
54.326
47.725
45.746
47.193
50.826
56.113
62.053
67.122
70.56
72.194
72.067
70.659
68.495
65.958
63.578
62.01
61.625
62.578
64.925
68.548
73.36
79.328
86.365
94.372
103.277
113.024
123.553
134.816
146.73
159.181
172.084
185.375
199.004
212.946
227.179
241.686
256.458
271.5
286.805
302.362
318.159
334.185
350.436
366.909
383.596
400.488
417.564
434.803
452.179
469.665
487.232
504.859
522.525
540.22
557.94
575.682
593.432
611.164
628.85
646.467
664.016
681.528
699.037
716.554
734.069
751.535
768.889
786.113
803.147
819.853
836.152
852.016
867.496
882.872
898.399
914.026
929.616
944.957
959.497
972.707
983.979
992.226
996.601
996.987
993.578
987.08
978.906
970.226
962.22
956.663
954.805
956.979
963.114
972.252
982.669
993.146
1002.51
1009.11
1011.844
1010.187
1003.884
993.529
980.158
964.233
946.08
926.178
904.728
881.881
857.723
831.878
803.815
773.371
740.621
705.817
669.343
631.464
592.421
552.586
512.436
472.45
433.016
394.38
356.689
320.126
284.93
251.391
219.788
190.249
162.77
137.274
113.696
91.98
72.043
53.729
36.781
20.966
6.124
-7.824
-20.915
-33.227
-44.883
-56.039
-66.842
-77.365
-87.613
-97.575
-107.25
-116.618
-125.634
-134.192
-142.121
-149.301
-155.675
-161.229
-165.982
-169.929
-173.044
-175.31
-176.72
-177.288
-177.04
-176
-174.183
-171.63
-168.401
-164.584
-160.301
-155.64
-150.663
-145.421
-139.948
-134.282
-128.466
-122.526
-116.478
-110.34
-104.136
-97.895
-91.649
-85.422
-79.224
-73.065
-66.945
-60.869
-54.846
-48.884
-42.993
-37.182
-31.464
-25.852
-20.367
-15.023
-9.83
-4.796
0.073
4.773
9.297
13.642
17.806
21.786
25.578
29.18
32.587
35.796
38.806
41.614
44.218
46.618
48.813
50.803
52.589
54.172
55.552
56.731
57.712
58.497
59.092
59.499
59.724
59.772
59.648
59.361
58.915
58.319
57.579
56.702
55.694
54.56
53.309
51.944
50.472
48.896
47.224
45.459
43.607
41.674
39.664
37.583
35.435
33.228
30.965
28.651
26.291
23.889
21.448
18.97
16.459
13.915
11.34
8.735
6.098
3.431
0.735
-1.993
-4.752
-7.544
-10.369
-13.231
-16.129
-19.065
-22.041
-25.058
-28.117
-31.217
-34.361
-37.548
-40.78
-44.06
-47.388
-50.768
-54.205
-57.702
-61.265
-64.898
-68.608
-72.398
-76.276
-80.247
-84.318
-88.495
-92.784
-97.194
-101.736
-106.422
-111.263
-116.269
-121.452
-126.827
-132.407
-138.208
-144.242
-150.516
-157.037
-163.815
-170.861
-178.188
-185.8
-193.696
-201.876
-210.341
-219.097
-228.15
-237.489
-247.093
-256.941
-267.014
-277.306
-287.827
-298.574
-309.533
-320.694
-332.046
-343.585
-355.312
-367.2
-379.192
-391.226
-403.222
-415.134
-426.94
-438.618
-450.155
-461.503
-472.562
-483.241
-493.462
-503.171
-512.363
-521.012
-529.023
-536.419
-543.361
-550.193
-557.463
-565.502
-574.31
-583.836
-594.044
-604.941
-616.512
-628.14
-638.495
-646.611
-652.089
-654.99
-655.79
-654.584
-651.267
-646.845
-643.502
-643.253
-648.002
-658.908
-675.633
-698.501
-726.835
-756.83
-785.505
-810.477
-830.116
-846.624
-856.383
-848.638
-812.377
-736.163
-621.905
-484.292
-337.428
-193.554
-52.203
93.546
240.402
375.437
474.014
510.553
475.398
374.444
224.177
43.212
-154.188
-358.185
-556.498
-730.251
-864.942
-952.851
-996.642
-1012.56
-1012.742
-1002.253
-981.868
-946.445
-895.854
-835.616
-772.381
-713.293
-662.537
-621.956
-591.931
-571.203
-558.22
-550.92
-546.791
-544.206
-541.522
-536.592
-528.44
-516.959
-502.492
-486.297
-469.796
-453.91
-439.782
-428.823
-421.741
-418.777
-419.853
-424.337
-431.496
-440.713
-451.22
-462.158
-472.957
-483.234
-492.692
-501.196
-508.622
-514.845
-519.829
-523.605
-526.188
-527.608
-527.925
-527.216
-525.635
-523.387
-520.672
-517.684
-514.572
-511.433
-508.358
-505.432
-502.705
-500.191
-497.885
-495.757
-493.777
-491.922
-490.142
-488.373
-486.527
-484.508
-482.209
-479.524
-476.364
-472.658
-468.346
-463.379
-457.721
-451.35
-444.252
-436.421
-427.844
-418.496
-408.365
-397.453
-385.771
-373.346
-360.214
-346.423
-332.034
-317.124
-301.768
-286.032
-269.978
-253.653
-237.102
-220.365
-203.49
-186.536
-169.541
-152.516
-135.462
-118.362
-101.196
-83.941
-66.551
-48.947
-31.072
-12.895
5.589
24.344
43.315
62.423
81.575
100.669
119.555
138.04
155.901
172.888
188.76
203.29
216.231
227.312
236.3
243.008
247.301
249.109
248.398
245.174
239.482
231.401
221.076
208.705
194.534
178.856
161.945
144.058
125.467
106.464
87.31
68.237
49.434
31.038
13.17
-4.07
-20.604
-36.38
-51.387
-65.649
-79.22
-92.185
-104.607
-116.525
-127.982
-139.022
-149.673
-159.954
-169.856
-179.344
-188.386
-196.958
-205.031
-212.576
-219.55
-225.902
-231.579
-236.52
-240.685
-244.054
-246.611
-248.356
-249.297
-249.45
-248.849
-247.544
-245.581
-243
-239.848
-236.167
-232.005
-227.416
-222.454
-217.172
-211.622
-205.851
-199.907
-193.833
-187.672
-181.461
-175.234
-169.021
-162.852
-156.756
-150.761
-144.893
-139.177
-133.631
-128.274
-123.122
-118.187
-113.478
-108.998
-104.75
-100.733
-96.942
-93.374
-90.02
-86.872
-83.919
-81.149
-78.549
-76.105
-73.801
-71.624
-69.557
-67.583
-65.688
-63.854
-62.067
-60.313
-58.576
-56.843
-55.101
-53.34
-51.549
-49.719
-47.841
-45.911
-43.924
-41.877
-39.769
-37.6
-35.375
-33.097
-30.774
-28.413
-26.024
-23.618
-21.208
-18.805
-16.425
-14.081
-11.789
-9.564
-7.422
-5.379
-3.449
-1.65
0.003
1.495
2.812
3.939
4.863
5.571
6.05
6.291
6.283
6.018
5.488
4.689
3.615
2.266
0.64
-1.262
-3.435
-5.876
-8.577
-11.531
-14.725
-18.149
-21.789
-25.629
-29.652
-33.841
-38.177
-42.639
-47.207
-51.86
-56.575
-61.33
-66.101
-70.865
-75.598
-80.277
-84.875
-89.368
-93.73
-97.937
-101.965
-105.79
-109.389
-112.738
-115.817
-118.603
-121.079
-123.226
-125.027
-126.465
-127.528
-128.203
-128.481
-128.356
-127.82
-126.87
-125.505
-123.724
-121.533
-118.936
-115.941
-112.554
-108.788
-104.657
-100.175
-95.361
-90.233
-84.808
-79.112
-73.174
-67.025
-60.699
-54.233
-47.661
-41.022
-34.356
-27.698
-21.078
-14.528
-8.074
-1.747
4.419
10.393
16.139
21.624
26.827
31.727
36.309
40.577
44.537
48.191
51.544
54.584
57.286
59.629
61.596
63.169
64.342
65.12
65.532
65.626
65.461
65.069
64.451
63.595
62.506
61.228
59.845
58.461
57.148
55.995
55.142
54.64
54.472
54.474
54.222
53.33
51.694
49.287
46.178
42.761
39.393
36.631
35.584
36.96
40.714
46.584
53.881
61.476
68.735
74.752
77.741
77.022
73.129
66.54
58.584
49.462
36.803
21.281
5.891
-5.226
-5.052
6.224
22.496
37.217
41.01
32.955
19.179
6.659
8.287
33.744
89.381
181.239
306.288
459.304
633.432
815.447
993.95
1151.43
1264.924
1318.471
1299.959
1211.489
1068.558
885.161
677.731
459.607
242.161
45.504
-112.184
-220.664
-278.528
-299.373
-300.829
-292.488
-278.202
-255.486
-219.852
-173.903
-124.146
-77.115
-39.435
-14.341
-1.579
-0.023
-7.61
-21.168
-37.546
-54.104
-68.136
-77.644
-81.925
-80.785
-74.672
-64.963
-53.197
-40.859
-29.647
-20.709
-14.465
-11.078
-10.316
-11.666
-14.618
-18.506
-22.521
-26.105
-28.975
-30.999
-32.227
-32.707
-32.426
-31.442
-29.856
-27.749
-25.186
-22.196
-18.778
-14.962
-10.818
-6.437
-1.92
2.646
7.218
11.772
16.299
20.797
25.269
29.736
34.233
38.803
43.481
48.297
53.274
58.444
63.845
69.52
75.508
81.846
88.56
95.673
103.203
111.164
119.567
128.414
137.705
147.436
157.601
168.196
179.214
190.642
202.468
214.67
227.228
240.117
253.307
266.764
280.452
294.33
308.355
322.48
336.658
350.837
364.965
378.987
392.849
406.491
419.857
432.888
445.524
457.709
469.385
480.495
490.985
500.803
509.898
518.223
525.734
532.388
538.148
542.98
546.852
549.738
551.616
552.468
552.281
551.046
548.761
545.427
541.05
535.644
529.224
521.812
513.433
504.117
493.9
482.82
470.919
458.244
444.843
430.77
416.08
400.83
385.081
368.892
352.326
335.447
318.318
301.002
283.563
266.065
248.569
231.138
213.83
196.705
179.818
163.223
146.973
131.115
115.695
100.757
86.339
72.479
59.208
46.556
34.55
23.21
12.555
2.6
-6.646
-15.174
-22.983
-30.071
-36.444
-42.108
-47.072
-51.351
-54.958
-57.913
-60.235
-61.948
-63.076
-63.646
-63.685
-63.222
-62.289
-60.917
-59.138
-56.984
-54.488
-51.684
-48.605
-45.283
-41.752
-38.045
-34.193
-30.228
-26.181
-22.081
-17.958
-13.839
-9.749
-5.713
-1.754
2.105
5.844
9.446
12.892
16.168
19.258
22.15
24.833
27.298
29.537
31.542
33.31
34.835
36.115
37.149
37.936
38.477
38.774
38.829
38.646
38.23
37.586
36.721
35.644
34.362
32.886
31.224
29.387
27.386
25.233
22.938
20.514
17.972
15.325
12.584
9.762
6.871
3.923
0.93
-2.097
-5.147
-8.207
-11.269
-14.321
-17.354
-20.358
-23.324
-26.243
-29.106
-31.906
-34.634
-37.285
-39.852
-42.329
-44.713
-47
-49.186
-51.271
-53.253
-55.13
-56.905
-58.577
-60.147
-61.62
-62.996
-64.28
-65.476
-66.59
-67.626
-68.59
-69.488
-70.327
-71.114
-71.855
-72.558
-73.231
-73.881
-74.517
-75.147
-75.78
-76.426
-77.092
-77.788
-78.521
-79.3
-80.132
-81.024
-81.983
-83.014
-84.122
-85.313
-86.589
-87.955
-89.411
-90.961
-92.604
-94.341
-96.17
-98.088
-100.092
-102.179
-104.342
-106.578
-108.879
-111.239
-113.649
-116.1
-118.584
-121.09
-123.606
-126.12
-128.618
-131.086
-133.511
-135.879
-138.175
-140.387
-142.498
-144.498
-146.373
-148.112
-149.702
-151.132
-152.392
-153.472
-154.366
-155.066
-155.567
-155.866
-155.961
-155.857
-155.558
-155.068
-154.393
-153.539
-152.514
-151.332
-150.005
-148.545
-146.961
-145.265
-143.472
-141.604
-139.681
-137.718
-135.729
-133.727
-131.726
-129.746
-127.804
-125.906
-124.057
-122.26
-120.522
-118.87
-117.324
-115.894
-114.587
-113.405
-112.343
-111.405
-110.584
-109.848
-109.167
-108.506
-107.828
-107.113
-106.342
-105.487
-104.535
-103.461
-102.222
-100.775
-99.065
-97.041
-94.709
-92.137
-89.38
-86.458
-83.456
-80.575
-78.189
-76.73
-76.422
-77.174
-78.841
-81.534
-85.315
-89.946
-94.636
-98.145
-99.58
-98.849
-96.231
-91.582
-84.694
-75.757
-65.963
-57.756
-53.343
-53.611
-58.745
-69.25
-85.628
-107.916
-133.28
-155.319
-168.043
-167.865
-156.106
-136.719
-108.999
-67.069
-0.403
101.139
238.094
402.797
583.521
765.476
934.597
1076.493
1170.884
1200.182
1159.322
1053.404
902.634
729.856
543.382
349.441
151.018
-44.121
-210.997
-331.751
-399.263
-418.358
-411.826
-395.923
-376.83
-355.78
-326.205
-286.96
-242.767
-197.678
-156.627
-122.294
-95.187
-75.814
-63.674
-57.375
-55.515
-57.233
-61.873
-68.545
-75.696
-81.398
-84.547
-85.128
-83.64
-80.583
-76.426
-71.648
-67.182
-64.309
-63.649
-65.189
-68.589
-73.247
-78.736
-84.799
-90.967
-96.661
-101.544
-105.421
-108.256
-110.18
-111.175
-111.183
-110.254
-108.467
-105.984
-103.024
-99.742
-96.264
-92.714
-89.165
-85.678
-82.303
-79.028
-75.832
-72.697
-69.599
-66.557
-63.601
-60.725
-57.913
-55.111
-52.231
-49.199
-45.949
-42.406
-38.515
-34.23
-29.507
-24.335
-18.716
-12.643
-6.112
0.895
8.403
16.425
24.969
34.038
43.627
53.731
64.342
75.44
87.004
99.012
111.44
124.266
137.471
151.025
164.897
179.052
193.447
208.04
222.783
237.623
252.505
267.372
282.164
296.823
311.29
325.504
339.401
352.921
366.002
378.584
390.606
402.009
412.736
422.73
431.937
440.308
447.794
454.349
459.933
464.509
468.042
470.506
471.876
472.132
471.259
469.247
466.091
461.792
456.353
449.785
442.102
433.326
423.483
412.602
400.718
387.869
374.099
359.454
343.984
327.741
310.782
293.165
274.952
256.206
236.991
217.376
197.427
177.212
156.802
136.263
115.665
95.075
74.56
54.186
34.015
14.111
-5.468
-24.663
-43.42
-61.688
-79.417
-96.563
-113.082
-128.938
-144.096
-158.524
-172.197
-185.09
-197.183
-208.462
-218.913
-228.529
-237.305
-245.24
-252.337
-258.601
-264.043
-268.674
-272.51
-275.57
-277.874
-279.445
-280.31
-280.494
-280.027
-278.94
-277.265
-275.035
-272.285
-269.049
-265.364
-261.264
-256.786
-251.964
-246.835
-241.432
-235.79
-229.943
-223.922
-217.76
-211.486
-205.131
-198.722
-192.286
-185.846
-179.427
-173.05
-166.732
-160.492
-154.346
-148.306
-142.385
-136.593
-130.938
-125.426
-120.063
-114.85
-109.789
-104.88
-100.121
-95.508
-91.038
-86.703
-82.498
-78.416
-74.449
-70.587
-66.822
-63.145
-59.544
-56.01
-52.532
-49.099
-45.701
-42.328
-38.97
-35.618
-32.264
-28.901
-25.523
-22.124
-18.7
-15.247
-11.763
-8.248
-4.703
-1.129
2.47
6.089
9.722
13.36
16.995
20.614
24.208
27.763
31.265
34.7
38.052
41.305
44.442
47.445
50.296
52.975
55.463
57.74
59.787
61.584
63.113
64.353
65.287
65.898
66.169
66.084
65.628
64.787
63.55
61.906
59.847
57.365
54.457
51.119
47.351
43.154
38.533
33.492
28.04
22.185
15.939
9.316
2.331
-4.997
-12.65
-20.605
-28.839
-37.324
-46.034
-54.938
-64.008
-73.211
-82.514
-91.882
-101.282
-110.676
-120.03
-129.308
-138.47
-147.477
-156.291
-164.876
-173.198
-181.228
-188.926
-196.256
-203.201
-209.742
-215.862
-221.55
-226.771
-231.486
-235.695
-239.403
-242.555
-245.112
-247.045
-248.313
-248.956
-249.047
-248.56
-247.444
-245.887
-244.111
-242.016
-239.636
-237.032
-233.791
-231.112
-230.167
-229.364
-228.242
-223.845
-212.624
-198.579
-184.386
-174.017
-172.904
-176.285
-180.133
-181.698
-176.431
-167.669
-158.78
-150.532
-144.981
-140.964
-136.978
-133.32
-129.777
-126.402
-123.46
-120.706
-117.957
-115.265
-112.614
-109.941
-107.186
-104.266
-101.128
-97.773
-94.201
-90.385
-86.335
-82.095
-77.771
-73.519
-69.477
-65.78
-62.562
-59.943
-58.086
-57.132
-57.277
-58.808
-61.853
-66.368
-72.109
-78.51
-84.928
-90.828
-95.487
-98.009
-97.853
-94.861
-89.638
-83.737
-78.744
-75.936
-76.451
-81.23
-90.705
-104.513
-120.623
-135.217
-143.896
-142.405
-126.744
-93.124
-38.386
39.793
140.348
257.873
386.017
517.88
649.457
781.255
910.126
1027.732
1119.611
1164.624
1148.844
1070.416
937.44
767.441
574.816
368.955
160.695
-37.496
-207.536
-331.958
-403.899
-425.771
-407.396
-360.789
-294.785
-218.923
-145.963
-87.893
-52.892
-40.687
-41.3
-44.347
-43.714
-39.323
-36.809
-39.301
-46.093
-54.064
-58.339
-56.759
-49.69
-38.048
-23.579
-7.858
8.015
22.538
34.512
43.555
49.53
52.581
53.07
51.304
47.79
43.343
38.68
34.215
30.162
26.532
23.293
20.508
18.196
16.298
14.747
13.466
12.432
11.695
11.337
11.401
11.849
12.545
13.3
13.987
14.542
14.931
15.133
15.114
14.858
14.397
13.808
13.167
12.516
11.873
11.226
10.579
9.975
9.491
9.222
9.25
9.641
10.454
11.758
13.62
16.092
19.206
22.975
27.413
32.557
38.439
45.08
52.494
60.671
69.588
79.213
89.494
100.36
111.748
123.593
135.837
148.441
161.357
174.535
187.931
201.48
215.139
228.897
242.743
256.676
270.73
284.933
299.341
314.053
329.119
344.556
360.36
376.472
392.838
409.396
426.054
442.713
459.247
475.485
491.256
506.382
520.638
533.792
545.581
555.685
563.85
569.875
573.587
574.882
573.668
569.879
563.509
554.603
543.24
529.538
513.62
495.607
475.663
453.99
430.843
406.541
381.372
355.609
329.519
303.362
277.407
251.896
227.01
202.875
179.577
157.208
135.87
115.682
96.753
79.148
62.873
47.899
34.193
21.69
10.308
-0.087
-9.678
-18.614
-26.995
-34.883
-42.302
-49.305
-55.97
-62.386
-68.654
-74.85
-81.016
-87.193
-93.416
-99.686
-105.975
-112.209
-118.255
-124.023
-129.462
-134.543
-139.272
-143.638
-147.617
-151.195
-154.357
-157.095
-159.41
-161.295
-162.74
-163.757
-164.377
-164.654
-164.673
-164.493
-164.154
-163.684
-163.098
-162.409
-161.63
-160.763
-159.798
-158.729
-157.553
-156.268
-154.881
-153.388
-151.78
-150.041
-148.152
-146.099
-143.871
-141.46
-138.859
-136.066
-133.08
-129.905
-126.551
-123.027
-119.338
-115.491
-111.492
-107.346
-103.061
-98.646
-94.108
-89.455
-84.699
-79.851
-74.923
-69.928
-64.879
-59.788
-54.669
-49.534
-44.397
-39.271
-34.17
-29.106
-24.092
-19.141
-14.265
-9.475
-4.781
-0.194
4.28
8.632
12.855
16.943
20.893
24.701
28.361
31.872
35.231
38.436
41.485
44.377
47.11
49.684
52.097
54.349
56.439
58.366
60.129
61.726
63.156
64.416
65.504
66.417
67.154
67.709
68.079
68.26
68.247
68.035
67.617
66.989
66.142
65.071
63.768
62.227
60.441
58.404
56.108
53.549
50.72
47.618
44.237
40.576
36.631
32.401
27.887
23.089
18.012
12.659
7.036
1.15
-4.99
-11.374
-17.99
-24.825
-31.866
-39.095
-46.494
-54.044
-61.725
-69.513
-77.386
-85.319
-93.287
-101.263
-109.219
-117.13
-124.966
-132.7
-140.304
-147.748
-155.005
-162.049
-168.853
-175.391
-181.639
-187.573
-193.173
-198.419
-203.296
-207.786
-211.876
-215.553
-218.81
-221.638
-224.033
-225.992
-227.515
-228.607
-229.278
-229.541
-229.409
-228.898
-228.028
-226.82
-225.296
-223.477
-221.38
-219.025
-216.435
-213.639
-210.666
-207.542
-204.294
-200.947
-197.529
-194.069
-190.591
-187.113
-183.645
-180.202
-176.806
-173.495
-170.311
-167.291
-164.456
-161.822
-159.405
-157.214
-155.248
-153.484
-151.872
-150.363
-148.922
-147.526
-146.161
-144.792
-143.358
-141.783
-139.989
-137.917
-135.533
-132.818
-129.759
-126.381
-122.731
-118.893
-115.011
-111.234
-107.706
-104.58
-102.003
-100.109
-99.115
-99.322
-100.921
-103.948
-108.193
-113.128
-118.176
-122.823
-126.438
-128.248
-127.67
-124.551
-119.56
-114.237
-110.321
-109.314
-112.428
-120.692
-134.693
-153.995
-176.406
-198.131
-214.544
-220.789
-212.477
-185.463
-135.713
-61.818
33.471
145.652
268.455
397.566
534.514
677.829
819.493
944.794
1028.914
1050.816
1005.214
898.705
750.496
581.318
400.714
215.236
31.333
-140.31
-282.702
-384.448
-443.857
-469.493
-474.273
-466.213
-448.014
-418.371
-377.186
-328.758
-279.495
-235.82
-201.908
-179.473
-168.248
-166.589
-172.578
-183.647
-197.002
-210.531
-222.068
-229.816
-233.175
-232.09
-227.028
-219.224
-209.924
-200.227
-191.481
-184.612
-179.931
-177.559
-177.213
-178.341
-180.442
-182.876
-184.949
-186.258
-186.608
-185.922
-184.283
-181.753
-178.363
-174.24
-169.512
-164.268
-158.581
-152.483
-146.009
-139.243
-132.299
-125.303
-118.355
-111.508
-104.795
-98.241
-91.857
-85.653
-79.623
-73.733
-67.959
-62.293
-56.72
-51.237
-45.828
-40.459
-35.1
-29.717
-24.28
-18.768
-13.158
-7.43
-1.568
4.442
10.608
16.937
23.439
30.129
37.018
44.122
51.449
59.009
66.809
74.855
83.15
91.692
100.478
109.501
118.754
128.226
137.905
147.775
157.817
168.011
178.334
188.76
199.261
209.807
220.365
230.902
241.382
251.77
262.027
272.115
281.995
291.628
300.975
309.998
318.659
326.921
334.746
342.101
348.952
355.266
361.014
366.167
370.7
374.589
377.815
380.36
382.209
383.351
383.777
383.483
382.467
380.729
378.273
375.106
371.239
366.684
361.457
355.576
349.061
341.937
334.228
325.962
317.167
307.874
298.114
287.918
277.32
266.354
255.053
243.452
231.585
219.487
207.192
194.733
182.145
169.461
156.712
143.929
131.144
118.384
105.679
93.055
80.537
68.15
55.918
43.863
32.005
20.364
8.959
-2.193
-13.078
-23.679
-33.983
-43.979
-53.653
-62.996
-71.996
-80.645
-88.933
-96.852
-104.394
-111.552
-118.319
-124.691
-130.661
-136.226
-141.382
-146.125
-150.453
-154.363
-157.856
-160.93
-163.586
-165.826
-167.651
-169.067
-170.076
-170.685
-170.902
-170.732
-170.187
-169.274
-168.007
-166.396
-164.455
-162.199
-159.643
-156.803
-153.699
-150.347
-146.768
-142.982
-139.011
-134.877
-130.6
-126.205
-121.714
-117.15
-112.537
-107.898
-103.256
-98.633
-94.053
-89.537
-85.106
-80.78
-76.579
-72.519
-68.619
-64.893
-61.355
-58.019
-54.897
-51.997
-49.329
-46.901
-44.717
-42.782
-41.099
-39.67
-38.495
-37.573
-36.901
-36.476
-36.295
-36.351
-36.639
-37.152
-37.882
-38.821
-39.96
-41.29
-42.801
-44.484
-46.328
-48.324
-50.462
-52.733
-55.126
-57.634
-60.248
-62.959
-65.761
-68.646
-71.608
-74.64
-77.737
-80.893
-84.105
-87.368
-90.678
-94.031
-97.424
-100.852
-104.314
-107.806
-111.324
-114.865
-118.428
-122.008
-125.603
-129.209
-132.825
-136.445
-140.068
-143.689
-147.306
-150.913
-154.507
-158.083
-161.636
-165.162
-168.653
-172.104
-175.509
-178.859
-182.147
-185.365
-188.505
-191.558
-194.514
-197.364
-200.099
-202.711
-205.191
-207.529
-209.716
-211.744
-213.604
-215.289
-216.789
-218.097
-219.202
-220.097
-220.774
-221.226
-221.444
-221.423
-221.153
-220.628
-219.842
-218.79
-217.464
-215.859
-213.97
-211.794
-209.329
-206.573
-203.525
-200.187
-196.558
-192.643
-188.445
-183.97
-179.221
-174.206
-168.931
-163.407
-157.644
-151.655
-145.453
-139.054
-132.476
-125.74
-118.869
-111.888
-104.822
-97.7
-90.553
-83.412
-76.308
-69.27
-62.325
-55.502
-48.832
-42.34
-36.052
-29.99
-24.175
-18.637
-13.399
-8.479
-3.888
0.375
4.308
7.904
11.148
14.017
16.493
18.567
20.225
21.442
22.204
22.5
22.349
21.809
20.927
19.734
18.236
16.406
14.252
11.813
9.141
6.317
3.402
0.412
-2.556
-5.364
-8.004
-10.546
-13.246
-16.583
-20.887
-26.35
-33.231
-41.644
-51.445
-62.348
-73.578
-83.979
-92.675
-98.848
-101.715
-101.003
-96.841
-89.764
-81.229
-73.09
-67.042
-65.215
-69.704
-81.893
-102.718
-132.152
-168.65
-210.185
-254.143
-296.26
-331.764
-356
-363.81
-350.886
-314.58
-252.127
-163.538
-53.926
71.177
205.398
343.804
487.89
636.619
780.843
905.354
986.75
1003.375
948.583
826.913
651.937
443.614
218.372
-7.497
-212.948
-379.258
-494.672
-557.731
-582.218
-587.873
-587.011
-583.844
-573.863
-549.622
-511.026
-462.785
-411.394
-363.416
-321.617
-287.042
-260.743
-242.661
-232.247
-228.41
-229.489
-234.455
-242.249
-251.155
-259.335
-264.978
-267.085
-265.739
-261.36
-254.292
-245.065
-234.451
-223.476
-213.402
-204.915
-198.048
-192.6
-188.187
-184.468
-181.188
-177.952
-174.273
-169.892
-164.748
-158.913
-152.591
-145.918
-138.96
-131.815
-124.586
-117.366
-110.25
-103.309
-96.595
-90.153
-84.014
-78.204
-72.738
-67.614
-62.814
-58.309
-54.05
-50
-46.132
-42.423
-38.85
-35.385
-31.989
-28.619
-25.234
-21.787
-18.238
-14.544
-10.662
-6.551
-2.174
2.505
7.514
12.88
18.636
24.822
31.482
38.666
46.403
54.708
63.587
73.039
83.047
93.589
104.616
116.059
127.857
139.96
152.332
164.951
177.774
190.743
203.79
216.842
229.86
242.831
255.746
268.601
281.427
294.285
307.284
320.566
334.222
348.285
362.748
377.581
392.762
408.282
424.127
440.251
456.569
472.972
489.329
505.485
521.218
536.226
550.135
562.533
573.085
581.567
587.805
591.632
592.899
591.435
587.08
579.781
569.52
556.214
539.848
520.483
498.262
473.533
446.775
418.384
388.691
358.215
327.475
296.697
266.243
236.503
207.398
180.428
157.049
135.933
116.838
96.896
72.567
47.876
25.42
9.107
4.325
6.077
10.117
13.443
11.183
6.48
2.473
-0.302
0.01
1.954
3.785
5.644
7.211
8.54
9.947
11.215
12.199
12.987
13.606
14.092
14.525
14.995
15.627
16.547
17.864
19.65
21.945
24.783
28.183
32.129
36.576
41.485
46.802
52.47
58.448
64.675
71.08
77.592
84.124
90.6
96.968
103.174
109.181
114.959
120.484
125.745
130.749
135.497
139.99
144.233
148.225
151.97
155.476
158.754
161.817
164.674
167.333
169.8
172.081
174.181
176.105
177.854
179.429
180.829
182.058
183.121
184.025
184.774
185.375
185.832
186.15
186.336
186.391
186.319
186.12
185.796
185.346
184.77
184.07
183.242
182.286
181.2
179.98
178.624
177.13
175.495
173.714
171.787
169.709
167.48
165.095
162.554
159.854
156.992
153.966
150.773
147.412
143.88
140.175
136.295
132.239
128.004
123.59
118.994
114.217
109.258
104.118
98.797
93.297
87.62
81.768
75.743
69.55
63.192
56.672
49.995
43.166
36.19
29.071
21.816
14.43
6.919
-0.709
-8.447
-16.287
-24.22
-32.239
-40.333
-48.492
-56.706
-64.963
-73.25
-81.556
-89.867
-98.169
-106.448
-114.687
-122.87
-130.982
-139.007
-146.927
-154.727
-162.391
-169.902
-177.244
-184.403
-191.363
-198.107
-204.621
-210.892
-216.904
-222.645
-228.101
-233.26
-238.113
-242.65
-246.862
-250.741
-254.281
-257.476
-260.324
-262.823
-264.973
-266.775
-268.235
-269.359
-270.155
-270.636
-270.817
-270.716
-270.35
-269.738
-268.9
-267.861
-266.642
-265.266
-263.756
-262.133
-260.422
-258.65
-256.843
-255.028
-253.23
-251.474
-249.785
-248.186
-246.7
-245.35
-244.152
-243.119
-242.262
-241.591
-241.118
-240.862
-240.825
-240.997
-241.363
-241.902
-242.586
-243.388
-244.263
-245.146
-245.976
-246.691
-247.242
-247.598
-247.723
-247.572
-247.096
-246.223
-244.902
-243.115
-240.853
-238.116
-234.91
-231.23
-227.111
-222.676
-218.073
-213.427
-208.822
-204.272
-199.759
-195.318
-191.04
-186.956
-183.016
-179.175
-175.38
-171.662
-168.226
-165.158
-162.241
-159.23
-155.834
-151.327
-144.865
-135.822
-123.149
-107.089
-89.817
-71.408
-51.442
-28.704
1.48
38.362
76.157
108.442
124.183
117.164
91.06
54.67
25.595
25.263
67.736
157.329
286.09
434.215
581.242
714.519
829.425
929.431
1020.358
1101.045
1163.38
1195.858
1184.713
1119.919
1001.177
830.724
614.844
371.333
118.713
-116.078
-299.597
-418.175
-470.51
-471.143
-451.751
-430.256
-413.291
-400.447
-380.578
-350.594
-315.332
-279.637
-250.515
-231.407
-220.83
-216.854
-217.299
-219.669
-222.14
-223.291
-221.463
-215.56
-205.59
-191.946
-175.317
-156.931
-137.981
-119.614
-103.312
-90.107
-80.375
-74.251
-71.524
-71.738
-74.446
-79.063
-84.777
-90.931
-97.066
-102.806
-107.996
-112.529
-116.262
-119.108
-120.982
-121.809
-121.555
-120.211
-117.775
-114.294
-109.852
-104.568
-98.636
-92.261
-85.644
-78.989
-72.432
-66.07
-59.981
-54.223
-48.853
-43.912
-39.405
-35.311
-31.605
-28.25
-25.207
-22.428
-19.827
-17.31
-14.779
-12.125
-9.274
-6.169
-2.756
0.997
5.125
9.666
14.64
20.059
25.926
32.223
38.94
46.074
53.603
61.499
69.724
78.216
86.947
95.913
105.105
114.52
124.132
133.881
143.714
153.577
163.436
173.285
183.097
192.813
202.4
211.837
221.114
230.249
239.189
247.8
255.968
263.574
270.539
276.839
282.427
287.246
291.238
294.318
296.435
297.579
297.696
296.707
294.531
291.053
286.267
280.286
273.196
265.084
256.012
245.998
235.092
223.383
210.939
197.829
184.11
169.811
155.015
139.848
124.436
108.931
93.406
77.845
62.263
46.685
31.146
15.711
0.421
-14.716
-29.658
-44.338
-58.691
-72.643
-86.152
-99.209
-111.803
-123.927
-135.549
-146.602
-157.034
-166.809
-175.89
-184.253
-191.866
-198.688
-204.701
-209.912
-214.326
-217.951
-220.79
-222.834
-224.079
-224.531
-224.196
-223.088
-221.219
-218.598
-215.24
-211.16
-206.377
-200.909
-194.772
-187.975
-180.529
-172.447
-163.741
-154.427
-144.519
-134.029
-122.971
-111.362
-99.217
-86.554
-73.388
-59.735
-45.61
-31.033
-16.02
-0.592
15.234
31.435
47.989
64.873
82.059
99.523
117.233
135.158
153.264
171.516
189.877
208.307
226.766
245.211
263.599
281.886
300.026
317.975
335.684
353.107
370.195
386.899
403.174
418.971
434.246
448.953
463.05
476.494
489.249
501.276
512.543
523.017
532.669
541.475
549.414
556.471
562.632
567.892
572.245
575.699
578.268
579.971
580.83
580.869
580.116
578.608
576.394
573.509
569.973
565.815
561.07
555.789
550.061
543.951
537.486
530.759
523.92
517.101
510.436
503.999
497.755
491.742
486.132
480.873
475.633
470.388
465.299
460.375
456.1
451.727
444.905
436.202
427.763
423.212
429.31
445.486
464.944
480.881
483.665
472.882
457.635
444.919
442.318
450.97
464.009
477.267
487.86
494.957
501.317
508.148
515.341
523.009
530.787
538.567
546.657
555.028
563.405
571.659
579.712
587.471
594.895
601.901
608.36
614.235
619.525
624.166
628.073
631.09
633
633.701
633.165
631.438
628.664
624.928
620.276
614.784
608.465
601.319
593.335
584.416
574.499
563.63
551.883
539.412
526.457
513.174
499.697
486.152
472.544
458.887
445.218
431.514
417.833
404.311
391.101
378.452
366.58
355.574
345.516
336.46
328.351
321.151
314.793
309.129
304.136
299.856
296.293
293.497
291.44
289.961
288.897
288.04
287.157
286.096
284.684
282.686
279.977
276.475
272.109
266.926
260.863
253.747
245.478
235.935
225.035
212.816
199.288
184.421
168.249
150.785
132.049
112.175
91.196
69.063
45.747
21.144
-4.762
-31.922
-60.41
-90.237
-121.287
-153.348
-185.947
-218.48
-250.495
-281.464
-310.732
-337.926
-362.853
-385.801
-407.809
-430.032
-453.482
-479.077
-507.555
-539.346
-574.466
-611.763
-648.745
-682.235
-708.802
-725.464
-729.321
-717.394
-687.411
-638.093
-571.382
-493.325
-410.396
-329.16
-253.239
-179.475
-107.426
-41.502
9.272
23.032
-21.301
-133.864
-319.545
-564.106
-837.239
-1110.166
-1345.985
-1513.49
-1606.897
-1629.57
-1602.129
-1559.856
-1519.671
-1490.007
-1471.485
-1447.762
-1413.489
-1370.984
-1321.468
-1275.954
-1240.573
-1214.588
-1199.018
-1190.98
-1187.01
-1186.445
-1188.091
-1190.459
-1193.199
-1196.016
-1197.776
-1197.913
-1196.166
-1191.721
-1184.201
-1173.822
-1160.104
-1142.402
-1121.139
-1096.754
-1069.945
-1042.174
-1014.302
-986.717
-960.301
-935.928
-913.803
-894.029
-876.242
-859.186
-842.086
-824.904
-807.288
-788.921
-770.176
-749.679
-726.447
-702.944
-680.067
-661.309
-650.786
-643.984
-637.924
-628.207
-608.651
-584.473
-560.137
-538.725
-525.415
-516.549
-508.361
-499.937
-488.905
-476.53
-464.49
-452.452
-440.627
-428.919
-417.033
-405.308
-394.072
-383.36
-373.193
-363.559
-354.39
-345.631
-337.251
-329.188
-321.359
-313.691
-306.093
-298.482
-290.751
-282.727
-274.161
-264.696
-253.965
-241.692
-227.69
-211.851
-194.098
-174.335
-152.489
-128.543
-102.504
-74.404
-44.254
-12.01
22.308
58.575
96.563
135.907
176.234
217.241
258.65
300.201
341.628
382.645
423.002
462.506
500.936
538.028
573.45
606.8
637.74
666.009
691.404
713.779
732.997
748.926
761.485
770.644
776.397
778.739
777.626
773.017
764.959
753.578
739.084
721.724
701.704
679.243
654.607
628.117
600.114
570.897
540.705
509.749
478.257
446.511
414.85
383.559
352.834
322.837
293.689
265.547
238.613
213.017
188.8
165.92
144.303
123.92
104.78
86.859
70.078
54.291
39.295
24.965
11.245
-1.934
-14.634
-26.974
-39.119
-51.163
-63.127
-75
-86.752
-98.384
-109.92
-121.328
-132.525
-143.399
-153.806
-163.673
-172.978
-181.69
-189.784
-197.217
-203.929
-209.907
-215.185
-219.791
-223.759
-227.118
-229.886
-232.122
-233.917
-235.365
-236.571
-237.612
-238.538
-239.403
-240.254
-241.132
-242.079
-243.114
-244.242
-245.474
-246.826
-248.311
-249.946
-251.732
-253.662
-255.726
-257.915
-260.219
-262.632
-265.146
-267.753
-270.446
-273.222
-276.077
-279.01
-282.016
-285.085
-288.204
-291.361
-294.543
-297.734
-300.919
-304.082
-307.208
-310.283
-313.294
-316.228
-319.074
-321.82
-324.456
-326.97
-329.354
-331.598
-333.694
-335.634
-337.411
-339.021
-340.457
-341.716
-342.792
-343.684
-344.387
-344.899
-345.217
-345.34
-345.265
-344.991
-344.519
-343.85
-342.985
-341.928
-340.68
-339.248
-337.637
-335.853
-333.902
-331.792
-329.53
-327.124
-324.582
-321.913
-319.126
-316.23
-313.237
-310.154
-306.995
-303.768
-300.486
-297.159
-293.8
-290.418
-287.028
-283.639
-280.265
-276.919
-273.612
-270.356
-267.165
-264.051
-261.025
-258.097
-255.279
-252.58
-250.008
-247.572
-245.279
-243.135
-241.145
-239.312
-237.639
-236.128
-234.778
-233.588
-232.556
-231.676
-230.944
-230.354
-229.899
-229.569
-229.354
-229.245
-229.231
-229.298
-229.432
-229.619
-229.841
-230.082
-230.323
-230.546
-230.729
-230.854
-230.899
-230.848
-230.68
-230.374
-229.913
-229.277
-228.447
-227.409
-226.141
-224.628
-222.853
-220.801
-218.459
-215.82
-212.875
-209.617
-206.042
-202.144
-197.925
-193.391
-188.54
-183.374
-177.895
-172.101
-166.018
-159.672
-153.087
-146.291
-139.314
-132.184
-124.945
-117.642
-110.302
-102.952
-95.611
-88.289
-81.031
-73.878
-66.868
-60.049
-53.424
-46.997
-40.79
-34.822
-29.096
-23.612
-18.337
-13.237
-8.335
-3.664
0.742
4.845
8.631
12.078
15.17
17.893
20.227
22.204
23.821
25.054
25.986
26.648
27.043
27.26
27.236
26.869
26.345
25.79
25.045
24.165
22.945
20.952
18.381
15.279
11.284
6.405
0.773
-5.77
-12.562
-18.597
-23.615
-26.887
-27.701
-26.089
-21.741
-14.059
-3.527
8.889
22.295
34.951
45.638
54.019
59.063
59.134
53.204
40.923
22.675
-0.132
-26.148
-54.426
-83.314
-108.034
-123.375
-126.71
-114.324
-86.206
-43.423
21.02
109.937
223.047
360.633
511.316
666.454
824.803
980.537
1128.951
1257.876
1342.958
1365.219
1316.845
1203.266
1044.091
857.738
655.426
446.772
241.025
55.239
-90.119
-185.545
-229.661
-232.36
-208.999
-163.906
-103.168
-35.039
35.81
95.908
139.157
170.885
192.941
211.18
228.24
238.382
240.059
233.576
220.024
204.375
190.566
180.471
175.147
174.244
176.796
181.889
188.729
196.444
203.836
209.761
213.53
214.936
214.263
212.066
208.863
205.084
201.216
197.763
195.03
193.159
192.155
191.887
192.235
193.14
194.532
196.331
198.496
200.973
203.707
206.659
209.76
212.95
216.205
219.505
222.844
226.239
229.704
233.271
236.99
240.902
245.032
249.406
254.044
258.973
264.233
269.863
275.899
282.375
289.321
296.763
304.727
313.229
322.279
331.88
342.031
352.732
363.983
375.782
388.125
401.003
414.403
428.308
442.699
457.552
472.836
488.518
504.559
520.917
537.55
554.411
571.449
588.612
605.844
623.089
640.285
657.372
674.286
690.961
707.331
723.331
738.892
753.947
768.431
782.278
795.424
807.808
819.37
830.053
839.805
848.575
856.317
862.988
868.551
872.973
876.224
878.281
879.125
878.745
877.132
874.286
870.21
864.912
858.409
850.72
841.871
831.892
820.818
808.69
795.553
781.456
766.454
750.606
733.972
716.618
698.612
680.027
660.934
641.408
621.524
601.36
580.991
560.494
539.944
519.417
498.984
478.718
458.688
438.961
419.599
400.665
382.213
364.298
346.969
330.27
314.241
298.919
284.336
270.518
257.487
245.261
233.853
223.271
213.516
204.588
196.478
189.175
182.664
176.923
171.928
167.652
164.063
161.126
158.805
157.061
155.852
155.134
154.863
154.993
155.477
156.268
157.32
158.586
160.02
161.577
163.213
164.886
166.553
168.175
169.713
171.13
172.392
173.465
174.32
174.928
175.264
175.305
175.032
174.427
173.476
172.166
170.49
168.44
166.012
163.206
160.021
156.461
152.531
148.239
143.594
138.607
133.289
127.655
121.719
115.496
109.001
102.252
95.265
88.058
80.649
73.058
65.302
57.403
49.378
41.249
33.035
24.756
16.432
8.081
-0.278
-8.626
-16.945
-25.218
-33.427
-41.558
-49.594
-57.521
-65.325
-72.994
-80.518
-87.884
-95.085
-102.11
-108.953
-115.606
-122.063
-128.319
-134.366
-140.203
-145.824
-151.227
-156.41
-161.372
-166.113
-170.633
-174.934
-179.02
-182.892
-186.556
-190.016
-193.279
-196.35
-199.237
-201.949
-204.494
-206.88
-209.117
-211.215
-213.182
-215.029
-216.765
-218.398
-219.937
-221.39
-222.766
-224.072
-225.316
-226.504
-227.644
-228.741
-229.802
-230.832
-231.836
-232.818
-233.782
-234.73
-235.667
-236.592
-237.507
-238.413
-239.31
-240.196
-241.069
-241.928
-242.769
-243.589
-244.383
-245.146
-245.875
-246.562
-247.202
-247.792
-248.325
-248.796
-249.2
-249.534
-249.792
-249.971
-250.067
-250.078
-250
-249.831
-249.569
-249.212
-248.759
-248.208
-247.557
-246.806
-245.955
-245.003
-243.95
-242.797
-241.544
-240.192
-238.742
-237.195
-235.555
-233.823
-232.001
-230.092
-228.099
-226.027
-223.879
-221.659
-219.369
-217.015
-214.601
-212.133
-209.614
-207.049
-204.443
-201.801
-199.13
-196.434
-193.721
-190.997
-188.271
-185.555
-182.861
-180.202
-177.591
-175.043
-172.571
-170.192
-167.918
-165.761
-163.73
-161.835
-160.09
-158.51
-157.11
-155.899
-154.889
-154.088
-153.504
-153.147
-153.019
-153.11
-153.418
-153.941
-154.688
-155.685
-156.947
-158.479
-160.284
-162.356
-164.684
-167.257
-170.042
-172.981
-176.021
-179.11
-182.213
-185.316
-188.383
-191.357
-194.162
-196.699
-198.896
-200.712
-202.096
-203.017
-203.482
-203.527
-203.238
-202.746
-202.155
-201.568
-201.105
-200.892
-201.072
-201.771
-203.17
-205.541
-209.058
-213.768
-219.472
-225.617
-231.603
-236.95
-241.015
-243.001
-242.362
-238.883
-233.233
-227.14
-222.26
-219.748
-220.912
-227.107
-239.022
-256.789
-277.278
-293.868
-302.512
-300.646
-287.577
-266.572
-232.729
-176.726
-93.803
22.631
167.167
324.959
487.584
642.855
781.568
897.995
978.186
1008.234
977.132
879.754
720.075
511.646
277.41
42.226
-165.545
-322.51
-422.48
-470.551
-484.688
-486.981
-487.063
-486.146
-479.713
-461.702
-434.164
-403.628
-375.989
-355.915
-344.583
-341.155
-344.299
-351.692
-360.429
-367.367
-370.568
-369.61
-364.475
-355.301
-342.542
-326.884
-309.699
-292.968
-277.896
-264.889
-254.153
-245.648
-239.277
-234.96
-232.258
-230.431
-228.96
-227.503
-225.784
-223.653
-220.958
-217.549
-213.398
-208.554
-203.059
-196.968
-190.337
-183.215
-175.68
-167.821
-159.723
-151.475
-143.18
-134.949
-126.897
-119.136
-111.748
-104.781
-98.271
-92.235
-86.677
-81.582
-76.918
-72.639
-68.708
-65.091
-61.752
-58.654
-55.755
-53.007
-50.367
-47.79
-45.235
-42.662
-40.035
-37.317
-34.478
-31.491
-28.332
-24.981
-21.414
-17.609
-13.546
-9.205
-4.57
0.373
5.634
11.223
17.143
23.391
29.961
36.844
44.026
51.488
59.21
67.166
75.329
83.667
92.146
100.729
109.377
118.047
126.697
135.281
143.752
152.063
160.166
168.012
175.552
182.74
189.527
195.869
201.72
207.037
211.779
215.907
219.384
222.178
224.257
225.594
226.166
225.954
224.945
223.127
220.495
217.048
212.788
207.723
201.864
195.227
187.831
179.7
170.86
161.342
151.18
140.411
129.073
117.209
104.864
92.083
78.915
65.409
51.616
37.586
23.372
9.027
-5.398
-19.85
-34.278
-48.63
-62.857
-76.911
-90.745
-104.315
-117.577
-130.494
-143.026
-155.141
-166.806
-177.993
-188.677
-198.835
-208.448
-217.5
-225.978
-233.871
-241.172
-247.877
-253.984
-259.495
-264.413
-268.745
-272.499
-275.686
-278.319
-280.413
-281.985
-283.052
-283.634
-283.752
-283.429
-282.688
-281.552
-280.046
-278.194
-276.021
-273.552
-270.811
-267.823
-264.609
-261.194
-257.598
-253.843
-249.948
-245.932
-241.814
-237.609
-233.334
-229.003
-224.627
-220.22
-215.79
-211.348
-206.901
-202.455
-198.015
-193.585
-189.169
-184.767
-180.38
-176.009
-171.65
-167.303
-162.964
-158.63
-154.294
-149.954
-145.604
-141.238
-136.852
-132.439
-127.996
-123.517
-118.998
-114.435
-109.823
-105.161
-100.444
-95.671
-90.841
-85.954
-81.009
-76.009
-70.955
-65.851
-60.701
-55.51
-50.283
-45.029
-39.754
-34.467
-29.178
-23.898
-18.636
-13.406
-8.221
-3.092
1.965
6.937
11.809
16.568
21.2
25.689
30.023
34.188
38.171
41.959
45.539
48.902
52.035
54.93
57.578
59.972
62.106
63.976
65.579
66.912
67.976
68.771
69.301
69.567
69.577
69.336
68.852
68.136
67.199
66.053
64.712
63.191
61.506
59.675
57.715
55.646
53.485
51.255
48.976
46.669
44.355
42.058
39.8
37.602
35.487
33.475
31.587
29.843
28.261
26.858
25.652
24.658
23.89
23.362
23.085
23.072
23.331
23.872
24.699
25.817
27.23
28.939
30.944
33.243
35.832
38.707
41.861
45.287
48.975
52.912
57.085
61.478
66.074
70.853
75.795
80.878
86.077
91.369
96.73
102.133
107.554
112.965
118.339
123.649
128.867
133.961
138.898
143.646
148.173
152.445
156.432
160.102
163.426
166.378
168.937
171.084
172.799
174.061
174.85
175.148
174.945
174.229
172.995
171.238
168.959
166.168
162.885
159.127
154.907
150.228
145.077
139.454
133.37
126.842
119.892
112.549
104.85
96.855
88.653
80.331
71.965
63.621
55.343
47.194
39.263
31.651
24.479
17.853
11.842
6.497
1.86
-2.067
-5.306
-7.914
-10.043
-11.859
-13.509
-15.141
-16.855
-18.756
-21.057
-24.076
-28.062
-33.102
-39.065
-45.581
-52.242
-58.605
-64.038
-67.68
-68.754
-66.993
-62.803
-57.163
-51.562
-47.7
-47.205
-51.828
-61.418
-73.313
-84.673
-93.196
-100.208
-109.395
-119.548
-121.818
-98.902
-33.019
82.591
239.081
413.088
581.265
728.624
852.745
963.395
1062.973
1146.893
1202.567
1206.379
1148.076
1026.831
847.845
633.641
405.012
181.947
-8.637
-150.835
-238.775
-274.625
-276.791
-265.997
-253.03
-242.338
-230.389
-210.459
-183.408
-154.03
-126.585
-105.254
-90.808
-81.775
-77.186
-75.496
-74.363
-71.636
-66.286
-58.126
-47.427
-34.478
-19.198
-2.021
15.655
32.165
46.411
57.807
65.814
69.783
69.064
63.767
55.031
44.344
33.034
22.094
12.734
6.498
4.804
8.282
16.208
27.105
39.578
52.896
66.033
77.35
85.354
88.57
87.996
87.154
86.867
85.932
81.136
66.262
42.945
19.008
1.751
0.578
14.702
34.104
51.364
58.47
54.237
45.33
35.708
28.523
24.987
22.624
20.393
18.397
16.494
15.173
14.636
14.545
14.771
15.334
16.198
17.375
18.953
21.005
23.59
26.779
30.579
34.95
39.887
45.387
51.438
58.017
65.087
72.601
80.518
88.799
97.403
106.28
115.375
124.626
133.976
143.37
152.757
162.08
171.282
180.304
189.084
197.564
205.687
213.398
220.643
227.368
233.523
239.061
243.94
248.119
251.562
254.239
256.119
257.179
257.4
256.769
255.277
252.921
249.703
245.628
240.709
234.961
228.406
221.068
212.978
204.167
194.673
184.537
173.803
162.517
150.729
138.49
125.855
112.879
99.62
86.137
72.489
58.736
44.937
31.153
17.441
3.858
-9.539
-22.697
-35.564
-48.092
-60.233
-71.944
-83.184
-93.917
-104.107
-113.726
-122.745
-131.143
-138.902
-146.006
-152.444
-158.209
-163.299
-167.712
-171.454
-174.53
-176.951
-178.732
-179.889
-180.443
-180.416
-179.834
-178.726
-177.124
-175.058
-172.564
-169.678
-166.436
-162.877
-159.039
-154.961
-150.684
-146.246
-141.687
-137.048
-132.367
-127.683
-123.032
-118.451
-113.976
-109.639
-105.472
-101.507
-97.771
-94.292
-91.097
-88.209
-85.651
-83.443
-81.605
-80.153
-79.102
-78.465
-78.252
-78.471
-79.129
-80.231
-81.778
-83.771
-86.21
-89.09
-92.408
-96.155
-100.323
-104.902
-109.879
-115.24
-120.969
-127.051
-133.466
-140.197
-147.222
-154.522
-162.075
-169.857
-177.847
-186.018
-194.346
-202.806
-211.371
-220.014
-228.707
-237.423
-246.135
-254.816
-263.437
-271.972
-280.395
-288.679
-296.799
-304.729
-312.447
-319.93
-327.155
-334.102
-340.754
-347.093
-353.104
-358.772
-364.085
-369.034
-373.607
-377.799
-381.602
-385.012
-388.026
-390.643
-392.862
-394.686
-396.119
-397.166
-397.834
-398.132
-398.069
-397.659
-396.913
-395.846
-394.473
-392.812
-390.879
-388.693
-386.272
-383.638
-380.808
-377.802
-374.641
-371.343
-367.927
-364.411
-360.812
-357.147
-353.432
-349.682
-345.91
-342.132
-338.358
-334.6
-330.867
-327.169
-323.512
-319.904
-316.347
-312.845
-309.4
-306.01
-302.675
-299.391
-296.151
-292.95
-289.778
-286.625
-283.478
-280.324
-277.149
-273.935
-270.667
-267.327
-263.898
-260.362
-256.701
-252.897
-248.931
-244.786
-240.444
-235.887
-231.1
-226.065
-220.766
-215.19
-209.323
-203.152
-196.667
-189.857
-182.716
-175.237
-167.416
-159.25
-150.738
-141.882
-132.687
-123.161
-113.315
-103.163
-92.722
-82.016
-71.069
-59.909
-48.563
-37.064
-25.439
-13.723
-1.947
9.853
21.643
33.384
45.042
56.576
67.947
79.115
90.043
100.701
111.063
121.101
130.79
140.11
149.039
157.559
165.651
173.292
180.464
187.162
193.385
199.141
204.456
209.355
213.88
218.088
222.026
225.745
229.29
232.7
236.033
239.342
242.69
246.14
249.72
253.462
257.413
261.618
266.12
270.918
275.897
280.946
286.042
291.075
295.9
300.23
303.519
305.458
306.052
305.321
303.319
300.267
296.433
292.66
290.566
291.266
295.287
302.891
313.833
327.788
344.501
362.596
379.347
392.556
400.621
402.755
399.654
391.722
379.006
363.513
348.994
340.409
344.473
364.907
402.322
456.327
523.69
604.816
702.937
820.686
961.78
1123.626
1297.746
1472.802
1632.896
1761.839
1844.887
1870.015
1832.351
1735.81
1590.334
1407.447
1196.115
962.868
717.144
475.435
261.143
96.08
-7.888
-51.985
-50.307
-18.987
27.609
77.067
123.805
161.737
187.669
204.923
214.18
217.582
215.682
203.707
180.245
146.548
105.739
63.95
26.029
-5.892
-31.153
-50.195
-63.956
-73.641
-80.762
-87.196
-95.033
-105.441
-118.768
-135.096
-154.001
-174.928
-197.351
-220.408
-243.113
-264.91
-285.533
-304.878
-323.069
-340.144
-356.071
-370.962
-384.947
-398.103
-410.492
-422.109
-432.904
-442.88
-452.08
-460.555
-468.385
-475.614
-482.266
-488.381
-493.984
-499.105
-503.751
-507.877
-511.432
-514.381
-516.703
-518.395
-519.483
-520.001
-519.99
-519.511
-518.59
-517.222
-515.362
-512.909
-509.739
-505.704
-500.689
-494.621
-487.438
-479.086
-469.509
-458.648
-446.422
-432.734
-417.464
-400.465
-381.636
-360.934
-338.388
-314.109
-288.262
-261.069
-232.727
-203.414
-173.292
-142.499
-111.175
-79.456
-47.492
-15.443
16.495
48.089
79.134
109.45
138.917
167.467
195.08
221.781
247.584
272.486
296.472
319.5
341.518
362.471
382.298
400.937
418.357
434.552
449.516
463.245
475.717
486.888
496.703
505.091
511.991
517.352
521.141
523.344
523.961
523.011
520.524
516.544
511.114
504.27
496.053
486.503
475.669
463.608
450.386
436.072
420.743
404.476
387.352
369.449
350.846
331.618
311.841
291.584
270.923
249.931
228.684
207.262
185.741
164.197
142.708
121.349
100.192
79.307
58.76
38.614
18.929
-0.237
-18.831
-36.802
-54.1
-70.683
-86.507
-101.534
-115.729
-129.06
-141.499
-153.02
-163.602
-173.228
-181.883
-189.556
-196.24
-201.93
-206.625
-210.327
-213.043
-214.782
-215.555
-215.379
-214.272
-212.258
-209.362
-205.61
-201.034
-195.666
-189.539
-182.689
-175.154
-166.973
-158.187
-148.836
-138.965
-128.617
-117.84
-106.678
-95.179
-83.391
-71.362
-59.141
-46.776
-34.317
-21.81
-9.305
3.151
15.511
27.731
39.765
51.572
63.109
74.339
85.223
95.727
105.817
115.462
124.634
133.306
141.453
149.053
156.088
162.538
168.391
173.633
178.257
182.254
185.62
188.356
190.462
191.943
192.806
193.061
192.722
191.804
190.325
188.307
185.774
182.752
179.267
175.352
171.037
166.355
161.341
156.03
150.459
144.665
138.685
132.559
126.324
120.019
113.683
107.356
101.076
94.88
88.807
82.891
77.168
71.672
66.435
61.488
56.858
52.573
48.657
45.132
42.016
39.325
37.071
35.265
33.91
33.01
32.563
32.564
33.004
33.872
35.155
36.834
38.892
41.305
44.049
47.097
50.418
53.981
57.749
61.686
65.753
69.908
74.11
78.316
82.483
86.567
90.522
94.304
97.868
101.17
104.164
106.809
109.061
110.88
112.232
113.083
113.403
113.167
112.352
110.94
108.918
106.275
103.003
99.104
94.57
89.397
83.601
77.199
70.206
62.651
54.545
45.893
36.748
27.164
17.14
6.686
-4.174
-15.433
-27.008
-38.786
-50.761
-62.948
-75.115
-86.991
-98.63
-109.96
-120.893
-131.827
-141.515
-148.756
-155.226
-161.453
-170.553
-186.229
-204.374
-222.234
-235.694
-239.13
-237.438
-234.755
-233.932
-239.692
-248.616
-257.266
-264.857
-269.24
-271.566
-273.291
-273.994
-273.819
-272.624
-270.092
-266.505
-262.12
-257.023
-251.394
-245.393
-239.132
-232.721
-226.224
-219.699
-213.239
-206.963
-201.038
-195.645
-190.89
-186.871
-183.658
-181.224
-179.523
-178.411
-177.64
-177.019
-176.395
-175.645
-174.773
-173.762
-172.523
-171.101
-169.582
-168.148
-167.237
-167.072
-167.606
-168.827
-170.749
-173.441
-177.005
-180.943
-184.008
-185.273
-184.296
-181.016
-175.747
-168.48
-159.111
-148.606
-139.269
-133.355
-132.583
-138.024
-149.519
-166.95
-190.523
-217.553
-243.426
-264.862
-277.111
-278.721
-269.875
-243.209
-193.158
-113.863
-1.521
133.032
278.775
425.506
563.928
697.146
825.14
940.273
1032.374
1081.949
1072.814
1002.701
875.865
704.221
505.46
293.613
84.186
-101.52
-246.552
-341.753
-386.621
-395.407
-386.974
-371.75
-354.672
-334.263
-304.844
-267.037
-225.576
-185.14
-151.55
-128.304
-115.326
-111.486
-115.091
-123.841
-135.509
-148.512
-160.879
-170.115
-174.912
-174.858
-169.924
-160.975
-149.169
-135.319
-120.702
-107.033
-95.243
-85.781
-78.84
-74.069
-71.095
-69.709
-69.442
-69.716
-70.307
-71.114
-72.139
-73.556
-75.371
-77.511
-79.935
-82.542
-85.232
-87.939
-90.568
-93.051
-95.391
-97.575
-99.593
-101.421
-102.936
-104.022
-104.57
-104.462
-103.643
-102.097
-99.845
-96.998
-93.678
-89.967
-85.947
-81.645
-77.031
-72.096
-66.82
-61.169
-55.176
-48.911
-42.459
-35.954
-29.524
-23.246
-17.169
-11.279
-5.496
0.27
6.148
12.255
18.639
25.334
32.341
39.635
47.235
55.24
63.766
72.975
83.089
94.294
106.782
120.737
136.22
153.186
171.492
190.947
211.393
232.713
254.808
277.583
300.893
324.517
348.223
371.759
394.776
416.894
437.665
456.576
473.249
487.469
499.12
508.168
514.58
518.279
519.193
517.294
512.581
505.078
494.816
481.824
466.215
448.224
428.199
406.601
383.819
360.118
335.719
310.817
285.608
260.327
235.219
210.482
186.34
163.082
140.986
120.353
101.447
84.386
69.189
55.795
44.134
34.187
25.929
19.301
14.224
10.605
8.317
7.247
7.226
7.979
9.244
10.753
12.237
13.524
14.496
15.055
15.143
14.71
13.708
12.13
9.986
7.27
4.007
0.226
-4.003
-8.538
-13.261
-18.07
-22.862
-27.58
-32.185
-36.636
-40.927
-45.075
-49.091
-52.999
-56.826
-60.577
-64.271
-67.934
-71.601
-75.325
-79.146
-83.079
-87.135
-91.31
-95.589
-99.959
-104.385
-108.817
-113.21
-117.523
-121.711
-125.741
-129.577
-133.175
-136.497
-139.505
-142.164
-144.447
-146.33
-147.792
-148.819
-149.398
-149.524
-149.199
-148.425
-147.205
-145.543
-143.448
-140.932
-138.012
-134.706
-131.038
-127.033
-122.725
-118.148
-113.343
-108.353
-103.223
-98
-92.736
-87.482
-82.292
-77.22
-72.321
-67.649
-63.259
-59.204
-55.535
-52.302
-49.553
-47.331
-45.68
-44.639
-44.244
-44.527
-45.518
-47.242
-49.72
-52.971
-57.007
-61.838
-67.467
-73.894
-81.115
-89.12
-97.894
-107.416
-117.663
-128.603
-140.205
-152.43
-165.236
-178.576
-192.402
-206.662
-221.302
-236.264
-251.489
-266.919
-282.492
-298.147
-313.824
-329.462
-345.002
-360.386
-375.557
-390.46
-405.042
-419.254
-433.045
-446.37
-459.188
-471.458
-483.144
-494.214
-504.638
-514.392
-523.456
-531.812
-539.449
-546.358
-552.535
-557.98
-562.696
-566.693
-569.981
-572.575
-574.493
-575.759
-576.395
-576.43
-575.887
-574.797
-573.188
-571.092
-568.541
-565.561
-562.179
-558.42
-554.312
-549.883
-545.159
-540.167
-534.926
-529.461
-523.8
-517.972
-512.002
-505.907
-499.696
-493.376
-486.953
-480.432
-473.822
-467.123
-460.329
-453.438
-446.451
-439.372
-432.208
-424.949
-417.57
-410.045
-402.356
-394.5
-386.487
-378.334
-370.07
-361.724
-353.334
-344.941
-336.566
-328.233
-319.972
-311.795
-303.687
-295.64
-287.625
-279.664
-271.889
-264.286
-256.69
-248.926
-240.719
-231.994
-222.983
-213.746
-204.096
-194.136
-184.277
-175.124
-167.709
-162.447
-158.733
-156.074
-154.242
-152.887
-151.568
-149.439
-144.871
-137.076
-126.933
-115.677
-104.628
-94.816
-86.74
-81.264
-80.069
-84.293
-93.655
-107.082
-122.899
-139.847
-157.561
-175.561
-193.03
-209.327
-224.164
-237.811
-251.167
-264.82
-278.852
-293.392
-308.164
-322.477
-335.932
-348.092
-358.508
-367.28
-374.383
-379.459
-382.949
-386.223
-390.85
-398.463
-409.935
-425.317
-444.927
-469.116
-497.706
-528.036
-554.517
-573.356
-582.216
-581.357
-574.85
-558.379
-521.747
-455.832
-349.977
-208.483
-49.647
110.985
256.395
381.262
494.8
596.967
684.685
746.981
758.519
707.687
591.641
413.991
198.972
-30.371
-251.697
-437.576
-575.948
-664.297
-705.932
-714.9
-702.357
-674.17
-637.603
-600.589
-571.027
-555.668
-554.092
-557.663
-558.171
-551.952
-541.249
-533.41
-533.4
-541.317
-554.479
-568.719
-581.357
-591.805
-599.817
-605.4
-608.673
-609.894
-609.767
-609.18
-608.998
-609.733
-611.686
-615.025
-619.614
-625.147
-631.175
-637.067
-642.183
-646.122
-648.642
-649.613
-649.044
-646.934
-643.291
-638.208
-631.803
-624.168
-615.375
-605.471
-594.502
-582.562
-569.784
-556.313
-542.282
-527.783
-512.889
-497.665
-482.167
-466.447
-450.548
-434.491
-418.304
-402.028
-385.709
-369.398
-353.139
-336.964
-320.902
-304.976
-289.214
-273.648
-258.312
-243.237
-228.456
-214.001
-199.905
-186.204
-172.923
-160.083
-147.699
-135.782
-124.341
-113.384
-102.914
-92.931
-83.436
-74.427
-65.9
-57.853
-50.277
-43.165
-36.506
-30.29
-24.506
-19.143
-14.187
-9.628
-5.453
-1.652
1.786
4.869
7.606
10.005
12.074
13.816
15.236
16.338
17.123
17.593
17.748
17.586
17.105
16.304
15.179
13.726
11.942
9.823
7.365
4.567
1.426
-2.057
-5.883
-10.05
-14.554
-19.389
-24.55
-30.025
-35.804
-41.872
-48.213
-54.807
-61.632
-68.663
-75.872
-83.229
-90.701
-98.251
-105.843
-113.435
-120.987
-128.453
-135.789
-142.948
-149.882
-156.542
-162.881
-168.849
-174.399
-179.483
-184.055
-188.071
-191.487
-194.265
-196.365
-197.754
-198.399
-198.275
-197.355
-195.623
-193.06
-189.659
-185.411
-180.317
-174.381
-167.612
-160.023
-151.634
-142.469
-132.556
-121.929
-110.624
-98.683
-86.153
-73.081
-59.52
-45.525
-31.154
-16.467
-1.524
13.612
28.879
44.212
59.55
74.83
89.992
104.978
119.729
134.193
148.317
162.054
175.359
188.193
200.519
212.307
223.529
234.166
244.2
253.621
262.422
270.604
278.17
285.131
291.501
297.3
302.552
307.286
311.536
315.338
318.734
321.769
324.489
326.944
329.186
331.268
333.245
335.172
337.104
339.098
341.207
343.486
345.987
348.761
351.857
355.32
359.193
363.516
368.325
373.652
379.525
385.967
393
400.636
408.889
417.762
427.258
437.374
448.099
459.423
471.326
483.786
496.777
510.267
524.221
538.602
553.366
568.469
583.864
599.5
615.324
631.283
647.32
663.378
679.398
695.322
711.09
726.643
741.923
756.872
