Name,Aleksandre Beruashvili
Date of Birth,"Dec 20, 1998"
Recorded Date,2024-05-21 12:59:10 +0400
Classification,Sinus Rhythm
Symptoms,
Software Version,1.90
Device,"Watch7,2"
Sample Rate,512 hertz


Lead,Lead I
Unit,µV

16.725
18.422
20.12
21.793
23.417
24.979
26.449
27.79
28.981
30.015
30.908
31.71
32.442
33.109
33.701
34.182
34.541
34.801
34.983
35.123
35.261
35.425
35.677
36.113
36.768
37.645
38.689
39.77
40.808
41.773
42.647
43.46
44.21
44.85
45.35
45.688
45.809
45.672
45.171
44.125
42.46
40.17
37.323
34.119
30.66
26.91
22.866
18.507
13.755
8.583
2.804
-3.98
-11.914
-20.926
-30.872
-41.438
-52.34
-63.443
-74.26
-83.922
-91.853
-97.685
-101.265
-102.855
-102.626
-100.481
-96.869
-92.935
-89.796
-88.572
-90.15
-94.721
-102.349
-113.466
-128.264
-145.713
-163.757
-180.021
-190.453
-191.227
-181.024
-156.85
-117.874
-66.346
-1.326
75.734
163.858
265.901
381.086
506.372
632.079
740.268
810.628
823.243
770.437
656.51
493.453
302.9
103.493
-88.587
-254.059
-380.673
-462.532
-500.206
-507.222
-499.813
-487.041
-472.756
-453.946
-425.026
-386.823
-343.419
-299.062
-258.338
-223.044
-193.398
-169.782
-151.634
-137.765
-127.114
-119.02
-113.015
-108.537
-104.466
-99.335
-92.349
-83.577
-73.482
-62.548
-51.209
-39.867
-29.29
-20.538
-14.179
-10.269
-8.537
-8.445
-9.535
-11.5
-13.916
-16.282
-18.302
-19.783
-20.65
-20.95
-20.636
-19.64
-17.961
-15.611
-12.629
-9.103
-5.13
-0.845
3.566
7.975
12.298
16.475
20.502
24.369
28.062
31.593
34.96
38.157
41.187
44.042
46.719
49.249
51.677
54.071
56.526
59.109
61.866
64.835
68.029
71.455
75.12
79.011
83.108
87.399
91.871
96.516
101.327
106.288
111.376
116.561
121.807
127.076
132.333
137.543
142.671
147.684
152.549
157.238
161.727
165.99
169.996
173.719
177.126
180.188
182.879
185.172
187.042
188.465
189.421
189.894
189.872
189.343
188.3
186.739
184.658
182.057
178.943
175.322
171.204
166.603
161.534
156.016
150.071
143.723
136.996
129.919
122.521
114.832
106.883
98.707
90.335
81.799
73.134
64.371
55.543
46.684
37.826
29
20.236
11.564
3.012
-5.394
-13.631
-21.675
-29.507
-37.106
-44.457
-51.545
-58.357
-64.883
-71.113
-77.041
-82.662
-87.973
-92.973
-97.662
-102.042
-106.114
-109.884
-113.355
-116.533
-119.424
-122.035
-124.374
-126.447
-128.264
-129.833
-131.162
-132.26
-133.135
-133.795
-134.249
-134.505
-134.57
-134.452
-134.157
-133.693
-133.067
-132.284
-131.351
-130.274
-129.056
-127.704
-126.221
-124.612
-122.879
-121.025
-119.056
-116.974
-114.782
-112.485
-110.086
-107.589
-104.999
-102.319
-99.555
-96.711
-93.791
-90.801
-87.746
-84.632
-81.463
-78.245
-74.984
-71.685
-68.355
-65
-61.624
-58.233
-54.832
-51.425
-48.017
-44.613
-41.215
-37.828
-34.455
-31.1
-27.766
-24.456
-21.171
-17.913
-14.684
-11.484
-8.316
-5.179
-2.074
1.001
4.045
7.056
10.033
12.977
15.886
18.759
21.59
24.377
27.113
29.795
32.417
34.974
37.459
39.866
42.191
44.43
46.58
48.634
50.583
52.417
54.127
55.704
57.14
58.424
59.542
60.487
61.261
61.862
62.288
62.528
62.558
62.363
61.943
61.292
60.409
59.299
57.976
56.468
54.834
53.122
51.374
49.62
47.863
46.129
44.453
42.879
41.46
40.222
39.163
38.297
37.653
37.215
36.919
36.644
36.203
35.465
34.368
32.841
30.798
28.127
24.716
20.484
15.409
9.45
2.456
-5.635
-14.714
-24.48
-34.331
-43.602
-51.742
-58.114
-61.881
-62.583
-60.312
-55.524
-49.339
-43.106
-37.958
-35.313
-36.896
-42.157
-47.991
-51.65
-50.92
-47.427
-45.689
-44.945
-36.848
-7.415
55.306
154.216
279.964
415.62
550.417
678.129
793.293
890.807
955.096
967.5
920.571
815.169
662.807
483.478
293.04
106.036
-60.086
-191.799
-280.973
-326.97
-341.603
-340.463
-332.661
-321.308
-303.396
-274.372
-235.589
-191.674
-147.729
-108.639
-76.724
-53.072
-38.028
-30.493
-28.917
-31.608
-37.095
-44.439
-52.33
-58.805
-62.565
-63.158
-60.707
-55.965
-49.593
-41.958
-33.808
-26.305
-20.199
-15.798
-13.109
-11.68
-11.058
-10.997
-11.117
-10.934
-10.178
-8.706
-6.476
-3.636
-0.319
3.415
7.465
11.738
16.186
20.744
25.353
29.974
34.531
38.964
43.239
47.327
51.216
54.911
58.413
61.743
64.939
68.028
71.03
73.957
76.815
79.62
82.397
85.171
87.967
90.808
93.71
96.694
99.776
102.966
106.269
109.685
113.209
116.84
120.579
124.424
128.373
132.422
136.563
140.788
145.086
149.444
153.845
158.268
162.693
167.096
171.455
175.746
179.944
184.021
187.953
191.71
195.268
198.597
201.671
204.461
206.941
209.086
210.87
212.27
213.265
213.834
213.959
213.626
212.82
211.532
209.752
207.475
204.699
201.422
197.649
193.385
188.638
183.419
177.742
171.625
165.088
158.152
150.84
143.18
135.198
126.924
118.389
109.623
100.661
91.536
82.282
72.934
63.528
54.098
44.678
35.304
26.008
16.821
7.776
-1.1
-9.777
-18.232
-26.438
-34.375
-42.023
-49.365
-56.384
-63.069
-69.409
-75.397
-81.026
-86.294
-91.2
-95.745
-99.932
-103.766
-107.255
-110.407
-113.233
-115.745
-117.957
-119.884
-121.542
-122.948
-124.121
-125.079
-125.841
-126.427
-126.857
-127.151
-127.327
-127.407
-127.407
-127.348
-127.247
-127.119
-126.983
-126.851
-126.738
-126.657
-126.617
-126.629
-126.7
-126.839
-127.05
-127.338
-127.707
-128.159
-128.695
-129.316
-130.019
-130.804
-131.668
-132.606
-133.614
-134.688
-135.822
-137.01
-138.246
-139.524
-140.837
-142.179
-143.542
-144.92
-146.307
-147.695
-149.078
-150.451
-151.807
-153.14
-154.447
-155.724
-156.968
-158.176
-159.345
-160.474
-161.562
-162.609
-163.614
-164.577
-165.497
-166.376
-167.214
-168.013
-168.774
-169.498
-170.185
-170.837
-171.454
-172.036
-172.583
-173.093
-173.567
-174.001
-174.394
-174.746
-175.054
-175.315
-175.526
-175.686
-175.791
-175.84
-175.827
-175.751
-175.606
-175.389
-175.099
-174.73
-174.281
-173.747
-173.129
-172.425
-171.639
-170.772
-169.824
-168.799
-167.701
-166.534
-165.303
-164.009
-162.655
-161.244
-159.783
-158.284
-156.754
-155.203
-153.64
-152.073
-150.513
-148.972
-147.457
-145.965
-144.502
-143.071
-141.687
-140.378
-139.163
-138.052
-137.056
-136.182
-135.433
-134.814
-134.31
-133.886
-133.515
-133.168
-132.831
-132.511
-132.189
-131.836
-131.418
-130.878
-130.181
-129.319
-128.269
-127.019
-125.594
-124.036
-122.424
-120.889
-119.527
-118.434
-117.721
-117.492
-117.866
-118.94
-120.829
-123.713
-127.707
-132.848
-139.032
-145.875
-152.939
-159.872
-166.157
-171.132
-174.317
-175.342
-174.353
-172.419
-170.554
-169.44
-170.237
-174.182
-181.908
-194.116
-209.154
-222.091
-230.409
-232.976
-229.449
-222.786
-209.039
-177.968
-122.546
-37.379
73.419
195.38
318.819
439.293
554.31
662.218
751.873
801.945
794.62
723.624
594.797
426.737
240.938
50.317
-133.202
-298.327
-437.38
-537.148
-590.768
-602.066
-576.212
-529.224
-478.015
-431.497
-398.799
-377.657
-358.183
-335.155
-302.805
-262.559
-223.515
-190.453
-165.944
-149.735
-137.788
-128.506
-121.885
-117.305
-113.985
-110.52
-105.746
-99.572
-92.477
-84.769
-76.555
-68.08
-60.086
-53.633
-49.36
-47.308
-47.062
-48.086
-50.04
-52.704
-55.745
-58.66
-61.046
-62.656
-63.387
-63.304
-62.464
-60.863
-58.523
-55.527
-51.985
-48.065
-43.983
-39.889
-35.874
-32.004
-28.301
-24.793
-21.52
-18.498
-15.724
-13.177
-10.836
-8.689
-6.74
-4.971
-3.335
-1.756
-0.129
1.627
3.566
5.73
8.148
10.848
13.852
17.165
20.776
24.675
28.855
33.316
38.063
43.09
48.382
53.916
59.663
65.596
71.689
77.911
84.23
90.613
97.029
103.447
109.841
116.182
122.434
128.561
134.526
140.29
145.816
151.064
155.996
160.575
164.764
168.532
171.847
174.682
177.009
178.805
180.05
180.726
180.818
180.315
179.208
177.492
175.164
172.227
168.686
164.549
159.828
154.539
148.7
142.332
135.462
128.113
120.316
112.102
103.505
94.558
85.301
75.77
66.007
56.051
45.946
35.734
25.457
15.157
4.875
-5.35
-15.478
-25.47
-35.292
-44.909
-54.288
-63.398
-72.211
-80.699
-88.84
-96.611
-103.992
-110.968
-117.525
-123.65
-129.335
-134.573
-139.36
-143.695
-147.577
-151.008
-153.994
-156.54
-158.655
-160.348
-161.632
-162.52
-163.027
-163.168
-162.96
-162.421
-161.569
-160.422
-158.999
-157.319
-155.4
-153.262
-150.923
-148.401
-145.715
-142.881
-139.916
-136.837
-133.659
-130.397
-127.064
-123.673
-120.236
-116.764
-113.269
-109.759
-106.245
-102.735
-99.236
-95.756
-92.302
-88.879
-85.494
-82.151
-78.856
-75.611
-72.423
-69.294
-66.23
-63.233
-60.307
-57.457
-54.687
-52.001
-49.401
-46.894
-44.481
-42.169
-39.961
-37.861
-35.875
-34.007
-32.261
-30.642
-29.156
-27.805
-26.595
-25.53
-24.613
-23.847
-23.236
-22.783
-22.488
-22.354
-22.381
-22.568
-22.914
-23.417
-24.074
-24.88
-25.831
-26.922
-28.145
-29.493
-30.958
-32.531
-34.201
-35.958
-37.79
-39.685
-41.629
-43.608
-45.608
-47.615
-49.614
-51.589
-53.525
-55.406
-57.217
-58.942
-60.567
-62.075
-63.454
-64.69
-65.771
-66.687
-67.429
-67.99
-68.365
-68.551
-68.547
-68.354
-67.972
-67.406
-66.659
-65.736
-64.646
-63.393
-61.986
-60.435
-58.752
-56.95
-55.045
-53.051
-50.985
-48.865
-46.708
-44.533
-42.358
-40.19
-38.041
-35.927
-33.863
-31.877
-29.986
-28.198
-26.523
-24.967
-23.532
-22.214
-20.994
-19.828
-18.68
-17.523
-16.337
-15.123
-13.876
-12.574
-11.196
-9.712
-8.104
-6.384
-4.554
-2.602
-0.534
1.615
3.752
5.721
7.384
8.649
9.468
9.81
9.614
8.793
7.281
5.043
2.089
-1.579
-6.068
-11.469
-17.703
-24.481
-31.238
-37.293
-42.05
-44.908
-45.146
-42.245
-36.121
-27.21
-16.575
-5.703
3.788
10.213
11.897
8.832
3.029
-3.156
-7.633
-11.478
-17.178
-22.977
-21.79
0.418
56.297
147.207
264.961
392.059
513.223
625.782
730.13
825.249
903.71
945.721
932.261
856.913
722.291
540.566
331.899
113.158
-96.562
-272.447
-398.552
-468.681
-487.899
-476.903
-455.754
-433.785
-413.114
-388.382
-353.441
-309.551
-261.444
-213.953
-171.931
-137.589
-110.995
-91.942
-79.519
-72.261
-68.948
-68.885
-71.071
-74.08
-76.511
-76.863
-74.367
-69.222
-61.776
-52.287
-41.199
-29.122
-16.868
-5.505
4.401
12.871
20.087
26.377
32.022
37.198
42.205
47.449
53.149
59.341
65.96
72.82
79.794
86.838
93.874
100.817
107.59
114.11
120.315
126.166
131.636
136.704
141.362
145.603
149.436
152.886
155.99
158.798
161.349
163.671
165.789
167.725
169.511
171.186
172.787
174.351
175.911
177.499
179.145
180.879
182.726
184.702
186.819
189.084
191.506
194.094
196.856
199.796
202.916
206.215
209.688
213.329
217.127
221.067
225.13
229.294
233.536
237.831
242.151
246.469
250.754
254.974
259.097
263.091
266.92
270.551
273.95
277.081
279.911
282.408
284.541
286.278
287.593
288.459
288.854
288.757
288.148
287.014
285.342
283.122
280.348
277.019
273.135
268.699
263.72
258.208
252.179
245.651
238.644
231.182
223.292
215.002
206.344
197.351
188.057
178.5
168.715
158.744
148.624
138.397
128.101
117.778
107.467
97.206
87.033
76.985
67.097
57.401
47.93
38.713
29.777
21.147
12.846
4.895
-2.689
-9.892
-16.701
-23.107
-29.103
-34.685
-39.852
-44.605
-48.948
-52.887
-56.431
-59.589
-62.374
-64.8
-66.883
-68.641
-70.092
-71.257
-72.154
-72.807
-73.236
-73.463
-73.51
-73.4
-73.153
-72.79
-72.331
-71.798
-71.207
-70.578
-69.928
-69.273
-68.628
-68.007
-67.422
-66.885
-66.406
-65.994
-65.656
-65.399
-65.229
-65.149
-65.163
-65.273
-65.48
-65.784
-66.185
-66.68
-67.268
-67.946
-68.71
-69.556
-70.481
-71.48
-72.549
-73.684
-74.88
-76.134
-77.442
-78.799
-80.203
-81.65
-83.137
-84.662
-86.221
-87.812
-89.434
-91.085
-92.763
-94.466
-96.195
-97.946
-99.719
-101.512
-103.323
-105.151
-106.994
-108.85
-110.716
-112.59
-114.471
-116.355
-118.24
-120.122
-121.997
-123.862
-125.712
-127.541
-129.345
-131.115
-132.847
-134.531
-136.162
-137.732
-139.232
-140.653
-141.987
-143.223
-144.355
-145.371
-146.262
-147.017
-147.629
-148.088
-148.388
-148.52
-148.477
-148.253
-147.844
-147.247
-146.457
-145.474
-144.294
-142.918
-141.346
-139.583
-137.632
-135.499
-133.189
-130.713
-128.083
-125.315
-122.423
-119.421
-116.324
-113.15
-109.921
-106.657
-103.377
-100.101
-96.846
-93.635
-90.493
-87.448
-84.519
-81.726
-79.083
-76.61
-74.328
-72.258
-70.407
-68.782
-67.387
-66.228
-65.328
-64.701
-64.35
-64.276
-64.474
-64.933
-65.644
-66.592
-67.738
-69.046
-70.482
-72.009
-73.606
-75.252
-76.92
-78.595
-80.251
-81.859
-83.389
-84.789
-86.01
-87.067
-88.021
-88.927
-89.823
-90.753
-91.856
-93.427
-95.781
-99.093
-103.299
-108.234
-113.944
-120.511
-127.709
-134.916
-141.22
-145.771
-148.307
-148.983
-147.57
-143.721
-137.579
-129.905
-122.33
-116.869
-114.733
-116.371
-122.427
-133.441
-149.291
-168.952
-189.619
-207.128
-217.554
-217.251
-202.563
-170.55
-118.847
-46.103
46.348
154.834
273.397
393.582
506.634
605.502
686.714
749.043
791.637
811.202
797.086
739.289
631.562
472.792
279.583
74.89
-116.737
-268.048
-369.999
-425.625
-444.913
-447.502
-443.377
-433.758
-416.911
-387.064
-344.253
-293.814
-241.416
-192.565
-150.149
-115.219
-88.596
-70.311
-59.78
-55.822
-56.797
-61.595
-69.071
-77.588
-85.534
-91.348
-94.198
-94.215
-91.797
-87.238
-80.961
-73.595
-65.93
-58.953
-53.193
-48.581
-44.896
-41.853
-39.205
-36.775
-34.289
-31.342
-27.711
-23.379
-18.417
-12.986
-7.204
-1.103
5.252
11.76
18.335
24.896
31.381
37.784
44.105
50.331
56.463
62.497
68.437
74.308
80.142
85.964
91.786
97.614
103.45
109.302
115.185
121.116
127.106
133.164
139.295
145.503
151.795
158.171
164.628
171.157
177.744
184.376
191.044
197.737
204.443
211.148
217.834
224.485
231.083
237.607
244.032
250.335
256.489
262.465
268.238
273.781
279.066
284.066
288.755
293.107
297.096
300.699
303.889
306.646
308.947
310.771
312.102
312.923
313.219
312.98
312.195
310.86
308.97
306.527
303.53
299.987
295.905
291.295
286.171
280.55
274.45
267.892
260.902
253.507
245.734
237.615
229.182
220.469
211.511
202.345
193.005
183.531
173.96
164.329
154.676
145.039
135.454
125.958
116.585
107.369
98.343
89.535
80.974
72.687
64.696
57.022
49.685
42.699
36.078
29.833
23.972
18.499
13.418
8.728
4.429
0.514
-3.022
-6.188
-8.996
-11.457
-13.585
-15.396
-16.906
-18.134
-19.098
-19.819
-20.315
-20.609
-20.722
-20.674
-20.487
-20.183
-19.781
-19.301
-18.763
-18.185
-17.582
-16.972
-16.367
-15.781
-15.225
-14.708
-14.239
-13.825
-13.47
-13.179
-12.953
-12.794
-12.702
-12.674
-12.71
-12.806
-12.957
-13.16
-13.41
-13.7
-14.025
-14.379
-14.755
-15.147
-15.548
-15.952
-16.353
-16.745
-17.122
-17.48
-17.814
-18.122
-18.4
-18.647
-18.861
-19.045
-19.198
-19.323
-19.423
-19.504
-19.57
-19.628
-19.686
-19.75
-19.829
-19.931
-20.067
-20.245
-20.474
-20.763
-21.122
-21.558
-22.081
-22.698
-23.416
-24.241
-25.178
-26.233
-27.409
-28.709
-30.133
-31.682
-33.354
-35.15
-37.064
-39.094
-41.232
-43.471
-45.803
-48.218
-50.704
-53.248
-55.835
-58.451
-61.079
-63.702
-66.303
-68.863
-71.363
-73.783
-76.106
-78.312
-80.384
-82.302
-84.049
-85.61
-86.971
-88.117
-89.039
-89.725
-90.169
-90.366
-90.314
-90.011
-89.46
-88.663
-87.625
-86.352
-84.853
-83.134
-81.206
-79.081
-76.772
-74.297
-71.676
-68.93
-66.081
-63.152
-60.167
-57.151
-54.129
-51.117
-48.136
-45.205
-42.352
-39.611
-37.017
-34.593
-32.358
-30.33
-28.518
-26.924
-25.537
-24.324
-23.255
-22.305
-21.457
-20.712
-20.07
-19.513
-19.012
-18.527
-18.019
-17.481
-16.911
-16.29
-15.63
-14.981
-14.431
-14.135
-14.231
-14.796
-15.893
-17.579
-19.918
-23.025
-27.002
-31.913
-37.857
-44.941
-53.211
-62.646
-72.994
-83.701
-94.106
-103.525
-111.241
-116.585
-119.07
-118.516
-115.398
-110.839
-106.217
-102.898
-102.101
-104.933
-112.13
-123.616
-137.92
-152.328
-163.517
-167.702
-161.067
-139.876
-100.443
-41.161
35.99
127.293
227.695
333.802
445.705
562.323
679.614
785.622
862.06
891.928
861.324
769.733
626.944
443.763
237.789
25.007
-180.017
-354.969
-483.019
-556.662
-574.733
-550.099
-502.156
-445.702
-395.31
-359.567
-336.751
-322.83
-309.058
-286.995
-256.627
-222.465
-191.832
-170.435
-158.571
-153.522
-152.082
-152.77
-155.132
-158.466
-161.822
-163.716
-163.331
-160.919
-156.647
-150.555
-142.922
-134.16
-125.079
-116.81
-109.906
-104.341
-99.949
-96.419
-93.521
-91.129
-88.943
-86.54
-83.682
-80.301
-76.458
-72.337
-68.048
-63.628
-59.135
-54.639
-50.209
-45.918
-41.817
-37.935
-34.285
-30.877
-27.714
-24.797
-22.113
-19.637
-17.324
-15.116
-12.972
-10.857
-8.744
-6.609
-4.418
-2.13
0.289
2.87
5.645
8.636
11.871
15.373
19.158
23.236
27.608
32.272
37.226
42.467
47.991
53.787
59.843
66.143
72.667
79.393
86.294
93.339
100.493
107.718
114.975
122.224
129.42
136.521
143.481
150.254
156.796
163.061
169.004
174.58
179.747
184.462
188.688
192.386
195.523
198.066
199.988
201.264
201.874
201.801
201.032
199.56
197.379
194.491
190.9
186.615
181.65
176.021
169.75
162.864
155.393
147.37
138.831
129.818
120.372
110.539
100.366
89.904
79.201
68.31
57.283
46.173
35.031
23.91
12.861
1.933
-8.824
-19.365
-29.644
-39.621
-49.254
-58.508
-67.35
-75.748
-83.677
-91.112
-98.033
-104.424
-110.272
-115.568
-120.306
-124.483
-128.101
-131.164
-133.68
-135.66
-137.119
-138.073
-138.541
-138.547
-138.114
-137.268
-136.037
-134.452
-132.541
-130.337
-127.873
-125.179
-122.29
-119.237
-116.053
-112.77
-109.418
-106.029
-102.631
-99.251
-95.916
-92.651
-89.479
-86.42
-83.496
-80.723
-78.116
-75.691
-73.459
-71.429
-69.611
-68.008
-66.626
-65.465
-64.527
-63.808
-63.305
-63.014
-62.928
-63.038
-63.336
-63.812
-64.455
-65.253
-66.193
-67.262
-68.448
-69.737
-71.114
-72.567
-74.082
-75.646
-77.246
-78.869
-80.505
-82.141
-83.766
-85.371
-86.946
-88.482
-89.972
-91.408
-92.785
-94.096
-95.339
-96.509
-97.603
-98.62
-99.557
-100.414
-101.19
-101.884
-102.498
-103.031
-103.484
-103.86
-104.159
-104.384
-104.534
-104.612
-104.618
-104.553
-104.417
-104.211
-103.934
-103.585
-103.164
-102.67
-102.101
-101.456
-100.731
-99.925
-99.034
-98.057
-96.99
-95.828
-94.571
-93.215
-91.759
-90.201
-88.541
-86.78
-84.919
-82.961
-80.909
-78.769
-76.546
-74.244
-71.871
-69.434
-66.94
-64.396
-61.811
-59.195
-56.558
-53.915
-51.278
-48.664
-46.088
-43.564
-41.111
-38.744
-36.473
-34.308
-32.259
-30.342
-28.583
-27.002
-25.609
-24.414
-23.424
-22.64
-22.062
-21.67
-21.425
-21.287
-21.224
-21.214
-21.257
-21.345
-21.454
-21.554
-21.597
-21.553
-21.425
-21.214
-20.91
-20.509
-20.037
-19.597
-19.357
-19.47
-20.038
-21.099
-22.675
-24.851
-27.739
-31.439
-36.033
-41.526
-47.935
-55.424
-64.069
-73.731
-84.065
-94.37
-103.853
-111.938
-118.002
-121.22
-121.175
-117.998
-112.258
-105.32
-98.785
-93.949
-92.295
-95.498
-103.135
-112.395
-120.391
-124.373
-124.794
-124.54
-122.315
-110.463
-76.543
-10.551
89.608
215.4
351.546
488.363
619.277
737.588
835.776
897.398
906.743
858.518
756.637
614.117
444.162
257.455
64.416
-120.312
-274.757
-382.986
-439.601
-453.332
-446.261
-433.916
-422.423
-410.242
-389.196
-357.692
-320.128
-281.211
-246.491
-218.305
-195.993
-179.271
-167.227
-158.248
-150.838
-143.933
-136.725
-128.563
-119.162
-108.021
-94.845
-80.105
-64.596
-49.061
-34.389
-21.466
-10.764
-2.689
2.543
5.136
5.423
3.872
1.174
-1.945
-5.003
-7.679
-9.807
-11.348
-12.208
-12.294
-11.557
-9.995
-7.627
-4.459
-0.49
4.28
9.78
15.856
22.291
28.86
35.417
41.88
48.205
54.363
60.316
66.035
71.51
76.753
81.773
86.576
91.161
95.532
99.724
103.799
107.845
111.959
116.207
120.631
125.261
130.116
135.208
140.546
146.124
151.923
157.929
164.135
170.536
177.128
183.895
190.815
197.857
204.985
212.167
219.369
226.556
233.694
240.747
247.682
254.467
261.075
267.473
273.624
279.493
285.041
290.231
295.025
299.389
303.287
306.686
309.556
311.87
313.606
314.742
315.261
315.148
314.391
312.982
310.917
308.194
304.814
300.784
296.112
290.812
284.899
278.396
271.324
263.711
255.588
246.986
237.94
228.489
218.67
208.526
198.1
187.437
176.583
165.586
154.493
143.353
132.214
121.123
110.127
99.27
88.597
78.149
67.965
58.084
48.541
39.368
30.596
22.252
14.361
6.945
0.022
-6.393
-12.289
-17.656
-22.488
-26.785
-30.546
-33.775
-36.479
-38.667
-40.353
-41.551
-42.28
-42.56
-42.413
-41.865
-40.942
-39.673
-38.087
-36.215
-34.088
-31.738
-29.198
-26.5
-23.677
-20.76
-17.783
-14.775
-11.768
-8.789
-5.866
-3.026
-0.292
2.311
4.764
7.047
9.142
11.035
12.712
14.16
15.371
16.336
17.051
17.512
17.719
17.671
17.372
16.826
16.039
15.021
13.779
12.326
10.674
8.837
6.829
4.667
2.368
-0.051
-2.571
-5.174
-7.84
-10.552
-13.291
-16.039
-18.779
-21.493
-24.166
-26.782
-29.326
-31.784
-34.142
-36.387
-38.506
-40.489
-42.326
-44.008
-45.528
-46.878
-48.054
-49.049
-49.862
-50.489
-50.928
-51.179
-51.244
-51.122
-50.819
-50.34
-49.688
-48.873
-47.901
-46.782
-45.526
-44.145
-42.647
-41.044
-39.347
-37.569
-35.721
-33.817
-31.867
-29.885
-27.886
-25.887
-23.903
-21.951
-20.044
-18.2
-16.435
-14.764
-13.199
-11.751
-10.426
-9.236
-8.192
-7.305
-6.586
-6.041
-5.676
-5.497
-5.509
-5.712
-6.1
-6.661
-7.382
-8.256
-9.285
-10.479
-11.843
-13.376
-15.073
-16.929
-18.928
-21.054
-23.271
-25.528
-27.776
-29.974
-32.094
-34.118
-36.016
-37.759
-39.3
-40.58
-41.556
-42.183
-42.426
-42.289
-41.797
-40.992
-39.962
-38.801
-37.606
-36.514
-35.64
-35.079
-34.928
-35.244
-36.147
-37.886
-40.605
-44.301
-48.822
-53.752
-58.639
-63.124
-66.633
-68.382
-67.84
-64.887
-59.957
-54.095
-48.627
-44.94
-44.495
-48.883
-57.908
-69.229
-80.499
-89.656
-98.14
-109.175
-120.574
-124.392
-105.759
-50.902
40.962
160.627
290.531
415.423
533.541
645.713
749.857
836.712
884.875
875.741
804.268
675.329
502.719
304.245
93.683
-113.349
-294.834
-432.223
-515.331
-545.095
-538.449
-516.452
-490.859
-466.03
-438.885
-403.089
-359.089
-311.51
-265.377
-226.306
-197.176
-177.973
-167.654
-164.355
-166.033
-171.042
-178.183
-186.149
-193.106
-197.446
-198.43
-196.032
-190.814
-183.528
-174.664
-164.738
-154.7
-145.585
-137.963
-131.984
-127.427
-123.836
-120.872
-118.303
-115.774
-112.881
-109.399
-105.228
-100.403
-95.096
-89.429
-83.467
-77.296
-70.993
-64.618
-58.239
-51.912
-45.675
-39.589
-33.698
-28.022
-22.585
-17.39
-12.431
-7.696
-3.157
1.225
5.475
9.613
13.653
17.607
21.499
25.357
29.208
33.076
36.984
40.952
45.002
49.151
53.41
57.786
62.28
66.892
71.621
76.47
81.435
86.515
91.701
96.983
102.351
107.791
113.284
118.81
124.345
129.863
135.339
140.746
146.055
151.239
156.266
161.109
165.737
170.122
174.232
178.039
181.514
184.629
187.357
189.672
191.549
192.966
193.9
194.333
194.249
193.634
192.476
190.767
188.503
185.68
182.302
178.373
173.9
168.896
163.375
157.355
150.859
143.908
136.531
128.756
120.613
112.134
103.355
94.309
85.033
75.563
65.938
56.194
46.37
36.505
26.635
16.8
7.035
-2.622
-12.137
-21.475
-30.605
-39.494
-48.115
-56.44
-64.445
-72.108
-79.408
-86.329
-92.856
-98.978
-104.686
-109.973
-114.836
-119.273
-123.287
-126.88
-130.058
-132.828
-135.201
-137.186
-138.796
-140.044
-140.946
-141.518
-141.776
-141.737
-141.421
-140.846
-140.03
-138.995
-137.759
-136.343
-134.766
-133.047
-131.205
-129.26
-127.228
-125.127
-122.973
-120.781
-118.564
-116.337
-114.11
-111.894
-109.698
-107.532
-105.402
-103.314
-101.275
-99.289
-97.36
-95.491
-93.685
-91.945
-90.272
-88.668
-87.135
-85.672
-84.281
-82.963
-81.718
-80.546
-79.448
-78.422
-77.47
-76.591
-75.784
-75.049
-74.387
-73.796
-73.278
-72.833
-72.46
-72.162
-71.938
-71.789
-71.716
-71.719
-71.798
-71.953
-72.183
-72.488
-72.866
-73.316
-73.835
-74.421
-75.069
-75.775
-76.534
-77.339
-78.185
-79.062
-79.962
-80.876
-81.796
-82.711
-83.611
-84.485
-85.322
-86.111
-86.842
-87.501
-88.079
-88.562
-88.939
-89.2
-89.334
-89.33
-89.181
-88.877
-88.412
-87.784
-86.991
-86.031
-84.905
-83.614
-82.161
-80.552
-78.79
-76.879
-74.822
-72.624
-70.297
-67.853
-65.307
-62.671
-59.959
-57.186
-54.367
-51.524
-48.667
-45.801
-42.939
-40.092
-37.286
-34.561
-31.946
-29.463
-27.133
-24.968
-22.979
-21.176
-19.544
-18.048
-16.659
-15.347
-14.101
-12.93
-11.82
-10.746
-9.669
-8.528
-7.286
-5.933
-4.45
-2.829
-1.102
0.685
2.434
4.001
5.269
6.12
6.436
6.122
5.052
3.11
0.153
-4.025
-9.546
-16.404
-24.438
-33.242
-42.29
-51.089
-59.023
-65.344
-69.511
-71.263
-70.946
-69.66
-68.701
-69.278
-72.478
-79.207
-90.05
-105.013
-122.716
-140.29
-154.207
-160.737
-156.283
-137.477
-101.263
-45.061
30.711
121.72
222.656
327.422
432.389
538.95
645.893
746.37
828.798
874.197
865.728
798.906
677.18
512.398
323.518
126.068
-64.173
-227.776
-351.621
-429.194
-461.226
-461.041
-444.211
-419.513
-391.562
-358.956
-317.602
-269.51
-219.645
-173.229
-136.345
-111.33
-97.228
-92.746
-95.742
-103.556
-114.029
-124.901
-133.469
-138.186
-138.6
-134.591
-126.741
-116.079
-103.545
-90.357
-78.047
-67.464
-58.895
-52.421
-47.704
-44.331
-41.941
-39.965
-37.753
-34.948
-31.399
-27.082
-22.119
-16.575
-10.483
-3.944
2.928
10.049
17.359
24.832
32.45
40.159
47.875
55.506
62.987
70.283
77.379
84.269
90.95
97.42
103.695
109.801
115.753
121.564
127.244
132.797
138.24
143.597
148.89
154.142
159.376
164.606
169.842
175.097
180.371
185.669
190.987
196.321
201.669
207.028
212.396
217.766
223.134
228.489
233.821
239.117
244.362
249.537
254.624
259.601
264.446
269.139
273.655
277.97
282.061
285.903
289.471
292.742
295.691
298.295
300.53
302.375
303.808
304.81
305.363
305.45
305.057
304.172
302.784
300.887
298.476
295.546
292.1
288.14
283.671
278.702
273.244
267.31
260.916
254.083
246.83
239.183
231.166
222.807
214.135
205.18
195.974
186.55
176.94
167.178
157.298
147.334
137.32
127.289
117.275
107.31
97.426
87.652
78.018
68.552
59.279
50.223
41.407
32.85
24.571
16.587
8.91
1.552
-5.476
-12.168
-18.519
-24.525
-30.184
-35.499
-40.47
-45.104
-49.404
-53.379
-57.036
-60.387
-63.44
-66.209
-68.705
-70.941
-72.931
-74.69
-76.231
-77.569
-78.719
-79.696
-80.513
-81.186
-81.727
-82.151
-82.469
-82.693
-82.836
-82.908
-82.918
-82.875
-82.789
-82.666
-82.514
-82.339
-82.147
-81.942
-81.73
-81.514
-81.297
-81.084
-80.877
-80.678
-80.49
-80.316
-80.157
-80.017
-79.897
-79.798
-79.722
-79.671
-79.647
-79.65
-79.683
-79.747
-79.844
-79.976
-80.145
-80.352
-80.601
-80.893
-81.23
-81.614
-82.048
-82.531
-83.065
-83.652
-84.291
-84.983
-85.729
-86.526
-87.375
-88.273
-89.216
-90.203
-91.229
-92.288
-93.374
-94.481
-95.602
-96.731
-97.859
-98.977
-100.077
-101.151
-102.19
-103.185
-104.127
-105.006
-105.813
-106.539
-107.177
-107.716
-108.151
-108.473
-108.678
-108.763
-108.728
-108.57
-108.291
-107.89
-107.37
-106.734
-105.985
-105.123
-104.151
-103.071
-101.891
-100.622
-99.276
-97.861
-96.389
-94.87
-93.318
-91.75
-90.173
-88.59
-87.008
-85.437
-83.897
-82.421
-81.034
-79.751
-78.587
-77.552
-76.652
-75.892
-75.259
-74.716
-74.232
-73.779
-73.341
-72.925
-72.514
-72.081
-71.593
-70.99
-70.241
-69.34
-68.271
-67.027
-65.643
-64.168
-62.695
-61.374
-60.322
-59.648
-59.477
-59.912
-61.081
-63.093
-66.055
-70.126
-75.392
-81.854
-89.397
-97.662
-106.188
-114.579
-122.342
-128.873
-133.752
-136.659
-137.68
-137.717
-137.705
-138.341
-140.532
-145.031
-152.346
-163.246
-176.323
-187.293
-192.598
-188.973
-176.747
-161.227
-143.647
-120.765
-84.172
-20.99
73.775
195.972
334.437
474.303
604.958
717.303
802.33
848.588
842.169
777.665
657.277
490.147
294.028
84.892
-120.747
-301.004
-438.969
-525.497
-560.306
-558.271
-538.762
-512.677
-484.789
-452.738
-410.345
-358.254
-301.341
-244.938
-195.462
-156.684
-129.306
-112.931
-105.999
-106.394
-112.159
-121.593
-132.845
-143.53
-151.512
-155.669
-155.749
-152.318
-146.342
-138.547
-129.636
-120.719
-112.944
-106.939
-102.903
-100.594
-99.451
-99.07
-99.136
-99.198
-98.816
-97.712
-95.716
-92.787
-89.008
-84.443
-79.184
-73.396
-67.216
-60.757
-54.111
-47.353
-40.562
-33.813
-27.14
-20.545
-14.018
-7.557
-1.176
5.094
11.238
17.258
23.178
29.039
34.869
40.692
46.535
52.431
58.416
64.518
70.743
77.088
83.549
90.121
96.807
103.608
110.52
117.538
124.651
131.842
139.093
146.377
153.675
160.968
168.236
175.469
182.637
189.697
196.602
203.294
209.739
215.938
221.87
227.502
232.804
237.709
242.213
246.407
250.225
253.482
256.013
257.594
258.223
258.209
257.66
256.459
254.78
252.944
251.334
250.577
250.678
250.895
250.84
250.424
249.305
247.16
243.477
237.329
228.675
218.435
207.176
195.254
183.076
170.808
158.885
148.168
138.788
130.161
121.916
113.749
105.47
97.195
88.828
80.013
70.728
61.237
51.74
42.458
33.493
24.757
16.256
8.078
0.248
-7.236
-14.386
-21.242
-27.804
-34.027
-39.883
-45.356
-50.441
-55.155
-59.508
-63.507
-67.162
-70.481
-73.476
-76.163
-78.559
-80.682
-82.552
-84.185
-85.603
-86.826
-87.878
-88.78
-89.553
-90.209
-90.763
-91.23
-91.623
-91.957
-92.245
-92.497
-92.723
-92.931
-93.129
-93.323
-93.517
-93.713
-93.913
-94.119
-94.328
-94.541
-94.757
-94.972
-95.183
-95.386
-95.575
-95.747
-95.895
-96.013
-96.097
-96.14
-96.137
-96.085
-95.977
-95.811
-95.583
-95.291
-94.932
-94.507
-94.014
-93.455
-92.832
-92.146
-91.402
-90.605
-89.758
-88.869
-87.944
-86.991
-86.016
-85.027
-84.034
-83.046
-82.071
-81.118
-80.196
-79.315
-78.484
-77.71
-77.002
-76.366
-75.809
-75.336
-74.952
-74.661
-74.465
-74.367
-74.368
-74.466
-74.661
-74.951
-75.331
-75.796
-76.341
-76.957
-77.639
-78.376
-79.159
-79.978
-80.822
-81.681
-82.543
-83.399
-84.234
-85.039
-85.8
-86.507
-87.15
-87.716
-88.196
-88.58
-88.861
-89.036
-89.102
-89.058
-88.901
-88.633
-88.257
-87.775
-87.191
-86.502
-85.709
-84.815
-83.827
-82.753
-81.603
-80.385
-79.107
-77.781
-76.419
-75.033
-73.628
-72.204
-70.762
-69.312
-67.872
-66.473
-65.139
-63.888
-62.734
-61.689
-60.759
-59.948
-59.235
-58.585
-57.959
-57.328
-56.677
-55.999
-55.273
-54.472
-53.554
-52.465
-51.172
-49.649
-47.875
-45.867
-43.668
-41.343
-39.008
-36.784
-34.792
-33.185
-32.09
-31.628
-31.922
-33.03
-35.084
-38.335
-42.902
-48.769
-55.769
-63.413
-71.203
-78.804
-85.614
-90.812
-93.882
-94.642
-93.448
-91.394
-89.696
-89.36
-91.617
-98.101
-108.629
-120.771
-131.926
-138.506
-140.843
-144.335
-149.675
-153.198
-143.944
-103.514
-23.248
94.572
239.085
390.533
535.109
665.997
774.645
853.472
892.337
877.905
807.281
684.924
517.636
321.183
110.639
-97.955
-280.752
-420.541
-507.805
-541.532
-535.774
-506.329
-466.281
-426.983
-391.772
-362.603
-339.279
-316.553
-291.63
-261.55
-226.268
-191.586
-160.734
-135.457
-116.082
-99.66
-84.92
-72.346
-62.111
-54.342
-48.834
-44.674
-40.953
-37.532
-34.253
-30.682
-26.659
-22.226
-17.463
-12.828
-8.946
-5.91
-3.629
-2.076
-1.083
-0.536
-0.352
-0.199
0.406
1.754
3.961
7.044
10.902
15.453
20.647
26.329
32.248
38.185
43.968
49.507
54.8
59.853
64.644
69.161
73.391
77.321
80.968
84.35
87.466
90.339
93.003
95.518
97.982
100.484
103.094
105.861
108.818
111.986
115.391
119.044
122.946
127.098
131.5
136.155
141.071
146.25
151.685
157.363
163.263
169.357
175.625
182.04
188.574
195.199
201.886
208.608
215.337
222.046
228.7
235.266
241.704
247.975
254.041
259.861
265.393
270.598
275.435
279.87
283.866
287.392
290.414
292.904
294.836
296.186
296.935
297.064
296.559
295.41
293.611
291.158
288.053
284.301
279.909
274.891
269.262
263.042
256.254
248.924
241.081
232.755
223.982
214.798
205.242
195.354
185.178
174.757
164.137
153.365
142.486
131.547
120.595
109.675
98.832
88.109
77.549
67.192
57.076
47.239
37.714
28.532
19.723
11.311
3.32
-4.23
-11.324
-17.948
-24.092
-29.749
-34.914
-39.587
-43.77
-47.466
-50.684
-53.433
-55.725
-57.576
-59.001
-60.019
-60.652
-60.921
-60.849
-60.463
-59.787
-58.848
-57.674
-56.293
-54.731
-53.016
-51.177
-49.24
-47.231
-45.176
-43.099
-41.024
-38.972
-36.963
-35.018
-33.153
-31.384
-29.726
-28.19
-26.789
-25.531
-24.425
-23.477
-22.692
-22.074
-21.626
-21.35
-21.245
-21.311
-21.546
-21.946
-22.508
-23.228
-24.101
-25.121
-26.281
-27.576
-28.998
-30.539
-32.193
-33.95
-35.804
-37.746
-39.769
-41.864
-44.024
-46.242
-48.511
-50.824
-53.175
-55.558
-57.967
-60.395
-62.837
-65.287
-67.739
-70.185
-72.62
-75.037
-77.428
-79.788
-82.109
-84.383
-86.602
-88.759
-90.843
-92.847
-94.762
-96.578
-98.284
-99.87
-101.329
-102.651
-103.825
-104.844
-105.697
-106.377
-106.875
-107.186
-107.3
-107.212
-106.913
-106.401
-105.672
-104.724
-103.555
-102.165
-100.557
-98.737
-96.715
-94.499
-92.098
-89.525
-86.79
-83.911
-80.905
-77.787
-74.573
-71.278
-67.924
-64.536
-61.138
-57.754
-54.407
-51.116
-47.901
-44.789
-41.801
-38.95
-36.255
-33.73
-31.392
-29.274
-27.406
-25.801
-24.479
-23.447
-22.701
-22.241
-22.054
-22.103
-22.367
-22.815
-23.421
-24.181
-25.064
-26.043
-27.101
-28.193
-29.298
-30.403
-31.444
-32.385
-33.258
-34.108
-35.058
-36.234
-37.601
-39.253
-41.442
-44.375
-48.354
-53.483
-59.502
-66.408
-74.506
-83.713
-93.681
-103.765
-112.726
-119.923
-125.531
-129.228
-130.398
-128.924
-125.004
-119.897
-116.038
-114.835
-116.809
-122.898
-133.685
-149.482
-169.056
-187.857
-201.747
-208.273
-207.054
-200.444
-184.602
-150.59
-89.792
5.196
128.247
263.806
397.554
517.497
624.521
724.284
814.977
888.422
923.356
897.866
802.857
639.496
426.646
192.324
-37.295
-234.982
-382.622
-473.614
-509.987
-505.446
-477.598
-440.639
-402.293
-363.564
-321.878
-274.872
-224.9
-176.394
-133.91
-102.203
-82.222
-72.195
-70.276
-73.917
-80.675
-89.247
-97.897
-104.19
-106.976
-106.028
-101.456
-94.166
-85.16
-74.977
-64.551
-55.261
-47.81
-42.454
-39.18
-37.476
-36.844
-36.972
-37.404
-37.587
-37.217
-36.14
-34.312
-31.874
-28.927
-25.518
-21.733
-17.657
-13.342
-8.832
-4.168
0.626
5.498
10.374
15.209
19.975
24.656
29.26
33.798
38.285
42.751
47.234
51.761
56.35
61.016
65.769
70.628
75.616
80.757
86.069
91.57
97.272
103.185
109.311
115.648
122.188
128.918
135.821
142.881
150.085
157.415
164.853
172.377
179.963
187.584
195.213
202.82
210.369
217.825
225.15
232.307
239.258
245.966
252.391
258.496
264.244
269.597
274.522
278.984
282.951
286.392
289.279
291.587
293.293
294.377
294.822
294.615
293.746
292.21
290.004
287.13
283.593
279.401
274.568
269.11
263.046
256.401
249.2
241.474
233.257
224.586
215.499
206.038
196.248
186.172
175.857
165.353
154.705
143.964
133.176
122.391
111.656
101.017
90.519
80.205
70.116
60.292
50.769
41.58
32.757
24.326
16.312
8.737
1.618
-5.031
-11.198
-16.876
-22.061
-26.752
-30.951
-34.666
-37.903
-40.676
-42.999
-44.89
-46.368
-47.455
-48.176
-48.556
-48.623
-48.405
-47.931
-47.233
-46.339
-45.282
-44.091
-42.796
-41.427
-40.013
-38.58
-37.154
-35.761
-34.423
-33.161
-31.994
-30.942
-30.018
-29.236
-28.608
-28.144
-27.849
-27.731
-27.791
-28.033
-28.456
-29.057
-29.834
-30.782
-31.893
-33.16
-34.573
-36.121
-37.795
-39.58
-41.466
-43.438
-45.484
-47.59
-49.743
-51.93
-54.139
-56.357
-58.571
-60.771
-62.946
-65.087
-67.185
-69.232
-71.22
-73.144
-74.999
-76.78
-78.485
-80.109
-81.65
-83.105
-84.475
-85.757
-86.95
-88.054
-89.069
-89.995
-90.833
-91.586
-92.253
-92.836
-93.336
-93.754
-94.091
-94.347
-94.524
-94.619
-94.634
-94.568
-94.421
-94.192
-93.88
-93.483
-92.997
-92.422
-91.755
-90.993
-90.134
-89.174
-88.112
-86.947
-85.68
-84.31
-82.84
-81.27
-79.608
-77.858
-76.029
-74.125
-72.156
-70.128
-68.051
-65.936
-63.791
-61.623
-59.443
-57.259
-55.086
-52.938
-50.828
-48.768
-46.771
-44.852
-43.028
-41.309
-39.7
-38.207
-36.838
-35.606
-34.535
-33.64
-32.926
-32.398
-32.057
-31.899
-31.915
-32.078
-32.34
-32.658
-32.994
-33.323
-33.64
-33.927
-34.15
-34.27
-34.238
-34.03
-33.646
-33.078
-32.302
-31.326
-30.202
-29.031
-27.977
-27.161
-26.649
-26.501
-26.773
-27.558
-28.978
-31.139
-34.093
-37.889
-42.61
-48.313
-54.993
-62.42
-70.048
-77.203
-83.214
-87.435
-89.239
-88.161
-83.984
-77.055
-68.474
-59.627
-51.917
-46.702
-45.124
-47.917
-55.106
-65.38
-76.092
-83.97
-85.163
-75.635
-51.655
-9.568
51.951
130.224
221.011
318.883
420.52
527.441
639.48
751.516
851.012
917.936
932.545
882.757
768.3
597.626
388.111
163.152
-54.614
-238.794
-369.285
-442.228
-463.687
-452.979
-432.88
-413.488
-397.066
-379.451
-353.463
-319.317
-281.204
-243.511
-210.915
-185.207
-166.479
-154.215
-146.835
-142.866
-141.196
-141.022
-142.019
-143.413
-143.705
-142.042
-138.293
-132.669
-125.794
-118.111
-109.725
-101.142
-93.321
-86.828
-81.886
-78.457
-76.099
-74.444
-73.281
-72.271
-70.99
-69.182
-66.702
-63.514
-59.754
-55.528
-50.904
-45.977
-40.831
-35.529
-30.129
-24.686
-19.24
-13.855
-8.601
-3.524
1.346
5.997
10.43
14.652
18.685
22.56
26.318
29.989
33.592
37.143
40.66
44.167
47.691
51.257
54.89
58.61
62.437
66.385
70.467
74.686
79.043
83.535
88.157
92.904
97.772
102.754
107.844
113.032
118.306
123.651
129.051
134.489
139.94
145.383
150.791
156.14
161.402
166.552
171.559
176.398
181.039
185.455
189.618
193.498
197.07
200.307
203.182
205.673
207.756
209.41
210.615
211.354
211.613
211.379
210.642
209.393
207.628
205.343
202.539
199.219
195.388
191.054
186.228
180.923
175.156
168.944
162.309
155.273
147.86
140.097
132.012
123.634
114.993
106.12
97.047
87.808
78.434
68.962
59.422
49.851
40.279
30.741
21.269
11.893
2.643
-6.451
-15.362
-24.065
-32.533
-40.745
-48.679
-56.316
-63.638
-70.628
-77.274
-83.562
-89.484
-95.029
-100.193
-104.969
-109.356
-113.352
-116.956
-120.172
-123.002
-125.452
-127.528
-129.238
-130.592
-131.6
-132.276
-132.632
-132.683
-132.443
-131.929
-131.157
-130.143
-128.907
-127.464
-125.835
-124.036
-122.088
-120.009
-117.818
-115.532
-113.172
-110.754
-108.298
-105.819
-103.337
-100.869
-98.431
-96.04
-93.714
-91.469
-89.32
-87.282
-85.371
-83.6
-81.981
-80.526
-79.244
-78.144
-77.236
-76.526
-76.021
-75.726
-75.646
-75.786
-76.147
-76.731
-77.538
-78.567
-79.815
-81.281
-82.96
-84.848
-86.939
-89.226
-91.703
-94.361
-97.191
-100.181
-103.318
-106.589
-109.976
-113.464
-117.034
-120.666
-124.339
-128.033
-131.732
-135.416
-139.071
-142.677
-146.219
-149.68
-153.045
-156.295
-159.409
-162.365
-165.137
-167.708
-170.057
-172.17
-174.033
-175.63
-176.952
-177.995
-178.754
-179.22
-179.38
-179.215
-178.71
-177.873
-176.717
-175.266
-173.561
-171.636
-169.529
-167.293
-164.964
-162.564
-160.1
-157.548
-154.882
-152.101
-149.218
-146.27
-143.296
-140.298
-137.273
-134.214
-131.075
-127.818
-124.397
-120.728
-116.773
-112.547
-108.089
-103.51
-98.947
-94.486
-90.188
-86.078
-82.141
-78.401
-74.888
-71.623
-68.68
-66.128
-64.039
-62.534
-61.681
-61.474
-61.888
-62.819
-64.092
-65.601
-67.301
-69.2
-71.405
-73.996
-76.991
-80.422
-84.308
-88.667
-93.528
-98.864
-104.61
-110.784
-117.514
-124.935
-133.142
-142.069
-151.344
-160.45
-168.864
-175.971
-181.007
-183.372
-182.842
-179.578
-174.341
-168.455
-163.272
-160.136
-160.974
-166.161
-173.437
-180.49
-184.452
-184.826
-186.496
-191.726
-196.474
-191.136
-159.12
-86.903
26.669
174.939
345.273
520.534
686.182
825.958
919.01
951.446
919.141
828.289
696.991
540.505
365.484
177.898
-15.091
-196.453
-340.799
-432.094
-468.113
-462.898
-440.738
-417.183
-397.069
-377.112
-349.546
-313.225
-272.209
-231.037
-194.223
-163.397
-138.279
-118.633
-103.959
-93.336
-85.762
-80.761
-78.252
-77.94
-79.126
-80.733
-81.545
-81.135
-79.762
-77.571
-74.622
-71.047
-67.103
-63.353
-60.548
-58.998
-58.546
-58.947
-59.931
-61.261
-62.774
-64.176
-65.016
-65.002
-64.012
-61.97
-58.912
-54.896
-49.941
-44.158
-37.76
-30.905
-23.738
-16.4
-8.941
-1.401
6.174
13.782
21.425
29.088
36.762
44.424
52.037
59.593
67.091
74.548
82.008
89.51
97.085
104.773
112.596
120.558
128.662
136.889
145.208
153.599
162.037
170.502
178.981
187.454
195.9
204.292
212.603
220.801
228.854
236.729
244.389
251.802
258.937
265.766
272.266
278.412
284.178
289.54
294.473
298.954
302.959
306.467
309.454
311.901
313.791
315.11
315.846
315.991
315.538
314.483
312.826
310.57
307.718
304.278
300.262
295.68
290.55
284.888
278.716
272.057
264.936
257.381
249.423
241.093
232.425
223.454
214.216
204.748
195.088
185.273
175.342
165.333
155.285
145.236
135.225
125.29
115.465
105.788
96.29
87.005
77.962
69.188
60.71
52.55
44.731
37.27
30.184
23.488
17.192
11.307
5.837
0.787
-3.842
-8.051
-11.844
-15.227
-18.208
-20.796
-23.004
-24.845
-26.334
-27.487
-28.323
-28.86
-29.119
-29.122
-28.89
-28.446
-27.813
-27.014
-26.073
-25.013
-23.857
-22.627
-21.344
-20.031
-18.707
-17.391
-16.102
-14.856
-13.671
-12.56
-11.536
-10.612
-9.797
-9.1
-8.528
-8.088
-7.784
-7.619
-7.594
-7.71
-7.966
-8.359
-8.888
-9.546
-10.329
-11.231
-12.243
-13.357
-14.565
-15.857
-17.223
-18.653
-20.135
-21.66
-23.217
-24.795
-26.384
-27.974
-29.555
-31.117
-32.652
-34.152
-35.607
-37.013
-38.361
-39.646
-40.864
-42.009
-43.079
-44.07
-44.981
-45.81
-46.557
-47.221
-47.804
-48.306
-48.731
-49.079
-49.354
-49.558
-49.696
-49.773
-49.792
-49.757
-49.674
-49.547
-49.381
-49.179
-48.947
-48.687
-48.403
-48.097
-47.773
-47.433
-47.079
-46.711
-46.331
-45.941
-45.542
-45.135
-44.719
-44.293
-43.857
-43.41
-42.953
-42.483
-41.998
-41.498
-40.983
-40.456
-39.921
-39.38
-38.832
-38.282
-37.73
-37.181
-36.637
-36.097
-35.557
-35.019
-34.484
-33.957
-33.444
-32.946
-32.462
-31.996
-31.546
-31.115
-30.702
-30.3
-29.904
-29.512
-29.126
-28.76
-28.427
-28.131
-27.879
-27.672
-27.503
-27.368
-27.251
-27.121
-26.954
-26.725
-26.416
-26.016
-25.496
-24.839
-24.031
-23.046
-21.884
-20.52
-18.903
-17.037
-14.961
-12.732
-10.478
-8.271
-6.085
-4.079
-2.518
-1.64
-1.756
-2.905
-4.884
-7.824
-11.972
-17.157
-22.904
-28.352
-32.349
-34.516
-35.006
-33.438
-29.445
-23.279
-15.734
-8.59
-4.32
-4.328
-9.136
-19.891
-36.051
-54.837
-73.73
-88.799
-98.967
-108.193
-116.074
-118.1
-104.09
-58.181
25.608
142.797
282.324
427.691
568.645
699.804
812.274
893.665
929.02
906.423
825.695
698.882
541.164
364.979
180.345
-5.778
-180.874
-325.03
-425.311
-476.568
-485.448
-471.103
-446.043
-415.76
-381.371
-337.529
-284.155
-226.417
-169.165
-118.343
-77.867
-48.426
-29.592
-20.002
-17.643
-20.471
-26.76
-34.706
-41.987
-46.657
-47.79
-45.267
-39.797
-32.442
-23.979
-15.185
-7.233
-1.251
2.194
3.032
1.712
-1.068
-4.822
-9.177
-13.67
-17.799
-21.2
-23.625
-24.968
-25.287
-24.624
-22.983
-20.404
-16.962
-12.763
-7.975
-2.809
2.577
8.072
13.6
19.129
24.62
30.025
35.313
40.462
45.47
50.339
55.057
59.609
63.995
68.243
72.418
76.614
80.901
85.323
89.912
94.683
99.65
104.826
110.204
115.765
121.488
127.36
133.376
139.535
145.826
152.231
158.724
165.274
171.851
178.429
184.978
191.466
197.864
204.142
210.277
216.247
222.028
227.591
232.908
237.947
242.677
247.07
251.093
254.716
257.911
260.65
262.911
264.672
265.913
266.618
266.77
266.358
265.373
263.807
261.655
258.915
255.589
251.68
247.198
242.152
236.555
230.425
223.781
216.646
209.044
201.003
192.551
183.72
174.541
165.049
155.282
145.277
135.072
124.708
114.225
103.665
93.068
82.475
71.926
61.458
51.111
40.919
30.918
21.142
11.621
2.385
-6.537
-15.122
-23.345
-31.187
-38.63
-45.66
-52.265
-58.434
-64.162
-69.443
-74.277
-78.664
-82.607
-86.111
-89.186
-91.84
-94.087
-95.941
-97.418
-98.536
-99.315
-99.775
-99.938
-99.827
-99.465
-98.875
-98.082
-97.111
-95.985
-94.73
-93.369
-91.926
-90.425
-88.888
-87.336
-85.789
-84.266
-82.785
-81.363
-80.015
-78.754
-77.594
-76.546
-75.619
-74.822
-74.161
-73.643
-73.27
-73.045
-72.97
-73.043
-73.264
-73.629
-74.136
-74.779
-75.553
-76.452
-77.469
-78.595
-79.824
-81.145
-82.551
-84.031
-85.577
-87.179
-88.828
-90.516
-92.233
-93.973
-95.727
-97.489
-99.251
-101.009
-102.755
-104.485
-106.194
-107.879
-109.536
-111.161
-112.754
-114.312
-115.834
-117.322
-118.774
-120.192
-121.576
-122.928
-124.25
-125.543
-126.81
-128.052
-129.271
-130.47
-131.651
-132.817
-133.969
-135.108
-136.236
-137.354
-138.46
-139.556
-140.637
-141.703
-142.751
-143.777
-144.779
-145.751
-146.69
-147.589
-148.445
-149.252
-150.005
-150.697
-151.322
-151.873
-152.344
-152.731
-153.027
-153.227
-153.325
-153.319
-153.209
-152.996
-152.678
-152.258
-151.736
-151.115
-150.399
-149.589
-148.686
-147.69
-146.602
-145.429
-144.182
-142.869
-141.497
-140.076
-138.614
-137.123
-135.614
-134.094
-132.561
-131.019
-129.474
-127.947
-126.471
-125.07
-123.759
-122.553
-121.459
-120.482
-119.629
-118.88
-118.2
-117.556
-116.92
-116.279
-115.64
-114.988
-114.296
-113.527
-112.617
-111.529
-110.253
-108.767
-107.071
-105.197
-103.19
-101.14
-99.181
-97.421
-95.977
-94.972
-94.515
-94.738
-95.762
-97.741
-100.911
-105.402
-111.203
-118.12
-125.688
-133.356
-140.666
-147.042
-151.769
-154.373
-154.689
-153.199
-151.19
-150.055
-150.953
-154.856
-162.56
-174.513
-190.527
-208.994
-226.763
-240.124
-245.409
-239.165
-218.131
-179.298
-120.179
-41.714
51.446
154.317
260.986
369.753
482.926
595.808
699.773
778.649
809.637
784.345
704.439
581.099
435.693
276.949
108.015
-65.958
-240.406
-397.012
-513.877
-580.298
-594.713
-570.131
-526.556
-476.254
-425.561
-374.65
-320.215
-264.103
-210.879
-165.644
-133.201
-114.219
-106.859
-108.758
-116.547
-127.244
-138.318
-146.766
-150.712
-149.644
-143.564
-133.241
-119.934
-104.799
-89.228
-74.924
-62.873
-53.415
-46.614
-42.073
-39.295
-37.853
-37.115
-36.388
-35.283
-33.636
-31.417
-28.747
-25.69
-22.274
-18.592
-14.744
-10.797
-6.787
-2.717
1.415
5.576
9.698
13.712
17.569
21.261
24.792
28.179
31.441
34.597
37.686
40.757
43.845
46.983
50.198
53.513
56.961
60.58
64.407
68.477
72.82
77.457
82.404
87.674
93.269
99.188
105.425
111.967
118.802
125.917
133.297
140.921
148.768
156.81
165.018
173.36
181.8
190.298
198.814
207.303
215.722
224.025
232.165
240.096
247.77
255.14
262.159
268.782
274.963
280.659
285.828
290.43
294.428
297.79
300.485
302.484
303.766
304.312
304.108
303.145
301.416
298.923
295.669
291.663
286.919
281.455
275.293
268.459
260.984
252.901
244.248
235.066
225.4
215.295
204.801
193.967
182.848
171.496
159.966
148.313
136.593
124.859
113.168
101.573
90.126
78.877
67.875
57.168
46.796
36.803
27.223
18.09
9.434
1.28
-6.35
-13.44
-19.975
-25.947
-31.349
-36.182
-40.446
-44.147
-47.296
-49.904
-51.988
-53.568
-54.664
-55.303
-55.511
-55.316
-54.752
-53.849
-52.643
-51.168
-49.462
-47.561
-45.502
-43.323
-41.061
-38.753
-36.434
-34.139
-31.9
-29.748
-27.713
-25.821
-24.097
-22.562
-21.236
-20.136
-19.278
-18.673
-18.332
-18.26
-18.463
-18.943
-19.698
-20.727
-22.023
-23.579
-25.386
-27.432
-29.704
-32.187
-34.865
-37.719
-40.728
-43.873
-47.131
-50.478
-53.891
-57.346
-60.819
-64.285
-67.723
-71.11
-74.424
-77.644
-80.752
-83.729
-86.559
-89.224
-91.709
-94.002
-96.09
-97.963
-99.613
-101.034
-102.22
-103.168
-103.878
-104.35
-104.586
-104.588
-104.361
-103.911
-103.247
-102.377
-101.312
-100.065
-98.65
-97.081
-95.373
-93.544
-91.608
-89.58
-87.477
-85.312
-83.099
-80.851
-78.58
-76.296
-74.012
-71.74
-69.492
-67.283
-65.122
-63.02
-60.989
-59.036
-57.167
-55.383
-53.68
-52.053
-50.499
-49.015
-47.597
-46.242
-44.945
-43.702
-42.515
-41.381
-40.292
-39.236
-38.189
-37.132
-36.066
-34.995
-33.937
-32.919
-31.963
-31.093
-30.349
-29.749
-29.3
-28.992
-28.78
-28.622
-28.498
-28.403
-28.357
-28.381
-28.456
-28.561
-28.668
-28.708
-28.627
-28.362
-27.811
-26.921
-25.69
-24.147
-22.388
-20.541
-18.676
-16.837
-15.033
-13.241
-11.48
-9.783
-8.175
-6.735
-5.54
-4.67
-4.259
-4.384
-5.042
-6.214
-7.791
-9.602
-11.562
-13.64
-15.847
-18.292
-21.044
-24.109
-27.515
-31.261
-35.335
-39.759
-44.508
-49.529
-54.851
-60.565
-66.771
-73.577
-80.89
-88.278
-95.159
-100.959
-105.122
-107.102
-106.511
-103.15
-97.248
-89.798
-82.216
-75.722
-71.255
-69.925
-72.599
-79.378
-89.717
-100.648
-106.986
-105.779
-95.268
-75.013
-47.886
-11.622
39.428
109.141
203.077
320.105
452.072
590.756
723.915
836.581
915.345
947.204
922.42
842.47
714.522
546.189
350.754
140.288
-70.995
-258.516
-402.989
-495.238
-534.212
-536.438
-520.275
-493.506
-463.517
-429.193
-387.653
-344.523
-300.136
-255.897
-214.923
-175.966
-142.67
-117.766
-100.584
-91.335
-87.382
-86.156
-86.748
-87.168
-85.697
-81.659
-74.704
-65.246
-54.298
-42.557
-30.59
-19.423
-10.222
-3.642
0.114
1.321
0.697
-1.172
-3.889
-6.944
-9.819
-12.154
-13.689
-14.293
-13.984
-12.771
-10.659
-7.684
-3.899
0.621
5.764
11.37
17.229
23.158
29.028
34.76
40.314
45.659
50.754
55.572
60.107
64.368
68.366
72.1
75.562
78.768
81.763
84.624
87.457
90.345
93.342
96.49
99.817
103.345
107.091
111.055
115.222
119.579
124.122
128.848
133.761
138.855
144.115
149.516
155.031
160.631
166.289
171.977
177.662
183.317
188.912
194.424
199.83
205.106
210.223
215.151
219.86
224.317
228.493
232.355
235.875
239.022
241.771
244.098
245.984
247.408
248.355
248.81
248.762
248.202
247.124
245.524
243.399
240.754
237.591
233.918
229.747
225.09
219.963
214.384
208.375
201.957
195.156
187.996
180.504
172.709
164.639
156.326
147.801
139.096
130.243
121.277
112.229
103.134
94.022
84.924
75.871
66.891
58.011
49.259
40.658
32.233
24.006
15.997
8.226
0.71
-6.536
-13.498
-20.164
-26.525
-32.572
-38.298
-43.699
-48.77
-53.51
-57.917
-61.992
-65.735
-69.15
-72.24
-75.01
-77.466
-79.615
-81.465
-83.023
-84.298
-85.3
-86.039
-86.523
-86.764
-86.772
-86.558
-86.133
-85.508
-84.697
-83.709
-82.557
-81.253
-79.808
-78.232
-76.537
-74.733
-72.831
-70.842
-68.775
-66.642
-64.451
-62.214
-59.939
-57.637
-55.317
-52.988
-50.658
-48.338
-46.035
-43.759
-41.518
-39.322
-37.18
-35.1
-33.091
-31.163
-29.323
-27.578
-25.936
-24.403
-22.984
-21.685
-20.512
-19.47
-18.565
-17.802
-17.184
-16.717
-16.405
-16.25
-16.256
-16.424
-16.756
-17.254
-17.917
-18.747
-19.743
-20.904
-22.228
-23.713
-25.354
-27.146
-29.082
-31.154
-33.351
-35.664
-38.078
-40.58
-43.159
-45.802
-48.497
-51.234
-54
-56.785
-59.577
-62.363
-65.127
-67.851
-70.515
-73.094
-75.57
-77.923
-80.134
-82.188
-84.067
-85.759
-87.256
-88.547
-89.618
-90.456
-91.034
-91.334
-91.356
-91.106
-90.601
-89.874
-88.949
-87.853
-86.628
-85.302
-83.886
-82.382
-80.762
-78.992
-77.063
-74.981
-72.776
-70.481
-68.093
-65.595
-62.968
-60.166
-57.158
-53.916
-50.367
-46.464
-42.217
-37.667
-32.92
-28.105
-23.294
-18.511
-13.765
-9.048
-4.401
0.117
4.465
8.584
12.422
15.92
18.952
21.402
23.233
24.467
25.182
25.464
25.306
24.611
23.291
21.288
18.564
15.082
10.754
5.463
-0.864
-8.197
-16.493
-25.759
-35.982
-47.132
-58.989
-71.003
-82.598
-93.291
-102.502
-109.633
-114.279
-116.184
-115.742
-114.228
-112.792
-112.165
-113.372
-117.447
-124.802
-135.628
-147.654
-155.638
-156.74
-149.472
-133.531
-112.032
-81.471
-34.336
33.01
125.343
237.93
358.831
482.553
601.263
708.56
798.96
857.389
868.121
820.424
710.694
545.098
340.236
119.286
-94.462
-274.276
-401.749
-475.995
-502.829
-499.152
-483.111
-457.35
-424.328
-386.312
-343.141
-304.754
-275.708
-251.546
-230.036
-205.555
-177.316
-151.903
-132.305
-120.051
-114.891
-113.635
-114.765
-117.664
-120.836
-123.064
-123.6
-122.02
-118.484
-113.277
-106.525
-98.482
-89.976
-82.118
-75.535
-70.409
-66.549
-63.549
-61.176
-59.287
-57.554
-55.553
-53.014
-49.824
-46.034
-41.827
-37.307
-32.521
-27.525
-22.385
-17.175
-11.971
-6.83
-1.787
3.131
7.908
12.532
16.996
21.306
25.48
29.552
33.569
37.565
41.562
45.577
49.62
53.71
57.873
62.132
66.507
71.017
75.674
80.492
85.483
90.654
96.002
101.521
107.199
113.026
118.992
125.089
131.302
137.618
144.018
150.483
156.992
163.523
170.046
176.534
182.953
189.274
195.462
201.487
207.314
212.91
218.243
223.278
227.984
232.33
236.284
239.817
242.901
245.51
247.618
249.204
250.248
250.732
250.642
249.967
248.698
246.829
244.36
241.291
237.625
233.372
228.541
223.147
217.206
210.737
203.764
196.313
188.411
180.089
171.379
162.315
152.933
143.27
133.365
123.256
112.984
102.587
92.108
81.586
71.061
60.574
50.163
39.867
29.722
19.764
10.028
0.544
-8.656
-17.545
-26.098
-34.291
-42.103
-49.515
-56.513
-63.082
-69.212
-74.895
-80.124
-84.896
-89.211
-93.069
-96.474
-99.433
-101.952
-104.04
-105.711
-106.975
-107.848
-108.346
-108.487
-108.288
-107.769
-106.952
-105.858
-104.51
-102.929
-101.14
-99.165
-97.029
-94.753
-92.361
-89.875
-87.318
-84.709
-82.07
-79.421
-76.778
-74.161
-71.586
-69.068
-66.621
-64.258
-61.993
-59.835
-57.795
-55.882
-54.103
-52.466
-50.977
-49.64
-48.458
-47.436
-46.574
-45.872
-45.331
-44.948
-44.721
-44.647
-44.721
-44.938
-45.291
-45.774
-46.381
-47.102
-47.929
-48.855
-49.869
-50.964
-52.131
-53.359
-54.64
-55.965
-57.324
-58.709
-60.11
-61.517
-62.92
-64.31
-65.676
-67.009
-68.299
-69.537
-70.711
-71.813
-72.833
-73.764
-74.595
-75.319
-75.927
-76.413
-76.771
-76.996
-77.081
-77.022
-76.815
-76.46
-75.954
-75.297
-74.49
-73.53
-72.421
-71.165
-69.765
-68.225
-66.548
-64.739
-62.807
-60.763
-58.62
-56.388
-54.082
-51.715
-49.305
-46.868
-44.42
-41.972
-39.538
-37.131
-34.77
-32.474
-30.259
-28.142
-26.137
-24.259
-22.527
-20.955
-19.551
-18.314
-17.249
-16.361
-15.669
-15.197
-14.962
-14.968
-15.224
-15.73
-16.484
-17.483
-18.699
-20.088
-21.609
-23.228
-24.925
-26.689
-28.487
-30.276
-31.999
-33.6
-35.042
-36.304
-37.354
-38.185
-38.816
-39.295
-39.709
-40.16
-40.73
-41.508
-42.59
-44.087
-46.13
-48.829
-52.33
-56.817
-62.378
-69.002
-76.516
-84.472
-92.353
-99.694
-105.918
-110.397
-112.736
-112.792
-111.01
-108.529
-106.587
-106.268
-108.542
-114.222
-123.754
-136.988
-152.476
-167.393
-178.44
-182.289
-175.64
-155.313
-118.568
-63.135
10.228
97.051
192.539
291.22
389.993
490.34
590.124
681.936
754.392
789.731
774.029
705.128
587.285
431.307
252.762
64.103
-120.509
-281.356
-402.979
-477.462
-505.526
-501.666
-483.946
-462.142
-440.227
-415.945
-383.71
-343.807
-300.074
-256.459
-217.709
-186.451
-162.929
-146.643
-136.389
-130.685
-128.321
-128.44
-130
-131.421
-131.19
-128.487
-123.141
-115.547
-106.335
-96.001
-85.136
-74.679
-65.647
-58.58
-53.521
-50.215
-48.194
-47.064
-46.555
-46.259
-45.688
-44.569
-42.782
-40.306
-37.254
-33.654
-29.426
-24.582
-19.192
-13.35
-7.227
-0.951
5.407
11.741
17.962
24.013
29.833
35.415
40.797
45.993
51.02
55.882
60.538
64.976
69.21
73.265
77.203
81.081
84.935
88.813
92.765
96.824
101.022
105.368
109.845
114.442
119.157
123.986
128.938
134.016
139.212
144.516
149.917
155.398
160.945
166.537
172.145
177.742
183.305
188.808
194.233
199.559
204.759
209.807
214.677
219.341
223.772
227.942
231.82
235.375
238.58
241.41
243.84
245.847
247.409
248.506
249.121
249.24
248.849
247.939
246.502
244.531
242.024
238.981
235.405
231.302
226.679
221.548
215.922
209.818
203.257
196.258
188.845
181.045
172.883
164.39
155.594
146.528
137.224
127.715
118.037
108.226
98.316
88.343
78.343
68.351
58.401
48.526
38.759
29.131
19.67
10.407
1.369
-7.42
-15.935
-24.153
-32.054
-39.62
-46.835
-53.684
-60.154
-66.236
-71.922
-77.205
-82.081
-86.548
-90.605
-94.255
-97.499
-100.343
-102.794
-104.859
-106.55
-107.876
-108.85
-109.487
-109.8
-109.806
-109.52
-108.959
-108.14
-107.082
-105.803
-104.321
-102.655
-100.824
-98.848
-96.746
-94.536
-92.239
-89.872
-87.454
-85.003
-82.538
-80.075
-77.631
-75.223
-72.868
-70.579
-68.372
-66.262
-64.26
-62.379
-60.632
-59.027
-57.575
-56.284
-55.163
-54.216
-53.451
-52.873
-52.484
-52.29
-52.29
-52.487
-52.88
-53.469
-54.251
-55.224
-56.382
-57.722
-59.236
-60.917
-62.756
-64.743
-66.867
-69.115
-71.474
-73.931
-76.47
-79.074
-81.728
-84.413
-87.112
-89.806
-92.476
-95.102
-97.666
-100.149
-102.531
-104.794
-106.918
-108.886
-110.681
-112.286
-113.686
-114.866
-115.81
-116.508
-116.948
-117.12
-117.017
-116.633
-115.963
-115.006
-113.767
-112.251
-110.465
-108.419
-106.123
-103.591
-100.84
-97.886
-94.744
-91.431
-87.964
-84.365
-80.663
-76.884
-73.052
-69.193
-65.33
-61.489
-57.702
-53.991
-50.371
-46.864
-43.486
-40.266
-37.251
-34.474
-31.957
-29.725
-27.786
-26.149
-24.823
-23.796
-23.033
-22.509
-22.186
-22.048
-22.095
-22.302
-22.648
-23.094
-23.574
-24.062
-24.525
-24.922
-25.248
-25.521
-25.781
-26.15
-26.712
-27.514
-28.746
-30.564
-33.131
-36.678
-41.166
-46.534
-53.037
-60.818
-69.677
-79.349
-89.117
-98.093
-106.161
-113.167
-118.449
-121.625
-122.649
-121.935
-121.126
-122.047
-125.232
-131.061
-140.24
-153.096
-169.766
-188.134
-202.9
-209.03
-204.009
-189.742
-170.524
-146.733
-112.717
-56.891
30.257
147.433
283.924
420.85
542.882
646.094
729.063
792.581
831.523
831.139
782.708
684.336
541.289
368.342
180.957
-7.082
-178.865
-316.96
-413.244
-466.099
-481.727
-476.864
-458.855
-428.527
-390.482
-342.717
-289.797
-242.451
-200.623
-165.514
-137.692
-113.079
-94.396
-83.671
-79.666
-82.359
-89.084
-96.898
-104.191
-109.091
-110.787
-109.315
-104.967
-98.474
-90.547
-81.859
-73.347
-65.978
-60.317
-56.499
-54.323
-53.353
-53.166
-53.437
-53.764
-53.679
-52.916
-51.373
-49.032
-45.979
-42.276
-37.895
-32.907
-27.467
-21.678
-15.645
-9.452
-3.134
3.231
9.546
15.773
21.891
27.902
33.831
39.677
45.425
51.075
56.615
62.049
67.415
72.734
78.028
83.325
88.645
94.015
99.474
105.034
110.694
116.449
122.289
128.208
134.208
140.282
146.426
152.633
158.89
165.186
171.513
177.855
184.194
190.512
196.784
202.987
209.105
215.114
220.994
226.721
232.269
237.614
242.732
247.598
252.183
256.461
260.406
263.992
267.194
269.99
272.357
274.275
275.725
276.688
277.151
277.101
276.526
275.417
273.769
271.577
268.84
265.56
261.74
257.388
252.512
247.124
241.241
234.879
228.059
220.803
213.135
205.083
196.673
187.938
178.907
169.613
160.093
150.38
140.512
130.524
120.454
110.339
100.216
90.121
80.089
70.155
60.353
50.714
41.27
32.049
23.08
14.387
5.995
-2.075
-9.803
-17.172
-24.168
-30.777
-36.989
-42.796
-48.191
-53.172
-57.735
-61.881
-65.614
-68.937
-71.857
-74.382
-76.523
-78.291
-79.701
-80.766
-81.503
-81.93
-82.065
-81.927
-81.536
-80.913
-80.079
-79.054
-77.86
-76.517
-75.046
-73.468
-71.803
-70.069
-68.287
-66.473
-64.646
-62.824
-61.021
-59.255
-57.54
-55.891
-54.319
-52.838
-51.459
-50.193
-49.05
-48.037
-47.162
-46.433
-45.855
-45.431
-45.167
-45.063
-45.121
-45.34
-45.72
-46.259
-46.953
-47.8
-48.795
-49.933
-51.21
-52.619
-54.154
-55.809
-57.575
-59.446
-61.411
-63.463
-65.59
-67.781
-70.026
-72.313
-74.629
-76.964
-79.302
-81.632
-83.939
-86.21
-88.43
-90.586
-92.662
-94.645
-96.521
-98.277
-99.902
-101.383
-102.709
-103.87
-104.858
-105.665
-106.282
-106.704
-106.922
-106.932
-106.731
-106.316
-105.685
-104.837
-103.774
-102.499
-101.02
-99.347
-97.489
-95.457
-93.264
-90.924
-88.454
-85.868
-83.179
-80.4
-77.547
-74.638
-71.695
-68.74
-65.792
-62.874
-60.004
-57.204
-54.496
-51.893
-49.401
-47.026
-44.78
-42.682
-40.764
-39.054
-37.565
-36.313
-35.308
-34.55
-34.035
-33.738
-33.608
-33.603
-33.683
-33.821
-34.01
-34.23
-34.445
-34.619
-34.691
-34.616
-34.38
-33.948
-33.296
-32.464
-31.508
-30.538
-29.724
-29.17
-28.979
-29.281
-30.183
-31.81
-34.288
-37.667
-42.046
-47.63
-54.5
-62.595
-71.647
-81.023
-90.093
-98.405
-105.325
-110.059
-112.095
-111.36
-108.485
-104.961
-102.117
-100.823
-102.139
-107.235
-116.784
-129.334
-141.079
-147.619
-145.619
-136.023
-121.837
-101.815
-70.994
-20.596
58.269
165.424
294.079
434.079
573.123
701.674
808.709
881.29
907.887
878.63
794.442
662.596
491.488
297.644
94.98
-99.837
-261.969
-379.534
-448.825
-475.556
-480.419
-475.865
-465.621
-449.34
-419.742
-375.355
-321.098
-263.082
-208.394
-161.372
-124.067
-97.231
-80.018
-71.327
-69.541
-72.354
-78.048
-84.634
-89.436
-90.923
-88.529
-82.156
-72.65
-61.196
-48.619
-36.094
-25.167
-16.63
-10.757
-7.515
-6.34
-6.63
-7.952
-9.723
-11.275
-12.25
-12.442
-11.745
-10.216
-7.845
-4.593
-0.499
4.349
9.858
15.907
22.346
29.056
35.896
42.724
49.452
56.019
62.392
68.565
74.537
80.292
85.806
91.069
96.063
100.789
105.268
109.537
113.662
117.71
121.747
125.826
129.987
134.257
138.653
143.178
147.821
152.574
157.437
162.407
167.489
172.682
177.978
183.367
188.832
194.354
199.909
205.476
211.028
216.543
221.997
227.369
232.641
237.792
242.801
247.641
252.286
256.709
260.881
264.773
268.355
271.598
274.473
276.954
279.017
280.64
281.8
282.478
282.656
282.321
281.46
280.063
278.124
275.637
272.602
269.019
264.895
260.235
255.052
249.357
243.167
236.501
229.381
221.83
213.875
205.542
196.861
187.863
178.58
169.047
159.299
149.372
139.303
129.13
118.892
108.626
98.369
88.159
78.032
68.022
58.163
48.487
39.026
29.808
20.859
12.206
3.871
-4.126
-11.765
-19.031
-25.91
-32.391
-38.465
-44.126
-49.37
-54.194
-58.599
-62.588
-66.164
-69.333
-72.102
-74.482
-76.482
-78.114
-79.393
-80.331
-80.946
-81.254
-81.271
-81.017
-80.509
-79.765
-78.806
-77.65
-76.316
-74.824
-73.191
-71.438
-69.583
-67.643
-65.638
-63.583
-61.497
-59.394
-57.29
-55.2
-53.137
-51.113
-49.141
-47.23
-45.393
-43.639
-41.977
-40.417
-38.967
-37.636
-36.43
-35.357
-34.421
-33.63
-32.988
-32.498
-32.166
-31.995
-31.987
-32.145
-32.47
-32.963
-33.624
-34.451
-35.442
-36.595
-37.904
-39.366
-40.975
-42.722
-44.599
-46.6
-48.717
-50.945
-53.272
-55.69
-58.189
-60.761
-63.395
-66.08
-68.798
-71.534
-74.271
-76.995
-79.692
-82.35
-84.952
-87.486
-89.938
-92.299
-94.565
-96.724
-98.76
-100.658
-102.397
-103.976
-105.412
-106.713
-107.884
-108.933
-109.868
-110.702
-111.467
-112.167
-112.784
-113.306
-113.71
-113.999
-114.203
-114.344
-114.45
-114.525
-114.532
-114.457
-114.311
-114.085
-113.773
-113.353
-112.765
-112.017
-111.186
-110.329
-109.507
-108.737
-107.969
-107.179
-106.36
-105.522
-104.717
-103.97
-103.258
-102.589
-101.982
-101.475
-101.164
-101.066
-101.084
-101.153
-101.25
-101.417
-101.804
-102.523
-103.597
-105.046
-106.885
-109.174
-112.055
-115.619
-119.869
-124.812
-130.46
-136.842
-144.036
-151.905
-159.968
-167.647
-174.388
-179.65
-182.951
-183.912
-182.287
-178.415
-173.421
-168.581
-164.926
-163.433
-165.111
-170.783
-180.892
-193.47
-203.949
-208.173
-203.581
-191.42
-175.001
-153.786
-121.852
-69.371
11.417
120.501
248.105
379.32
502.802
610.781
699.34
764.585
796.739
785.307
722.035
604.554
436.879
229.431
1.164
-225.316
-421.084
-560.44
-635.138
-649.863
-624.602
-585.009
-544.117
-506.798
-470.352
-427.345
-378.295
-327.765
-280.916
-244.573
-220.923
-208.161
-204.262
-206.229
-211.075
-217.335
-223.316
-226.616
-226.117
-221.651
-213.436
-202.64
-190.699
-178.496
-167.127
-158.008
-151.808
-148.759
-148.812
-151.35
-155.664
-161.165
-167.178
-173.024
-178.322
-182.845
-186.441
-189.084
-190.696
-191.204
-190.615
-188.97
-186.297
-182.614
-177.979
-172.487
-166.326
-159.744
-152.919
-145.962
-138.941
-131.895
-124.871
-117.932
-111.12
-104.434
-97.874
-91.449
-85.166
-79.043
-73.067
-67.186
-61.323
-55.391
-49.328
-43.098
-36.68
-30.062
-23.236
-16.201
-8.973
-1.581
5.952
13.61
21.379
29.251
37.203
45.207
53.224
61.219
69.156
76.998
84.709
92.252
99.591
106.695
113.533
120.079
126.301
132.168
137.645
142.698
147.295
151.404
154.992
158.03
160.489
162.346
163.58
164.171
164.106
163.372
161.961
159.869
157.093
153.637
149.506
144.709
139.259
133.174
126.474
119.182
111.327
102.939
94.052
84.704
74.932
64.78
54.289
43.505
32.475
21.247
9.871
-1.604
-13.128
-24.648
-36.115
-47.477
-58.686
-69.692
-80.449
-90.913
-101.042
-110.794
-120.132
-129.023
-137.434
-145.336
-152.704
-159.516
-165.754
-171.402
-176.449
-180.887
-184.712
-187.922
-190.522
-192.515
-193.911
-194.722
-194.961
-194.647
-193.798
-192.437
-190.586
-188.272
-185.521
-182.362
-178.826
-174.942
-170.743
-166.26
-161.525
-156.572
-151.433
-146.138
-140.719
-135.207
-129.632
-124.021
-118.402
-112.801
-107.241
-101.746
-96.336
-91.03
-85.845
-80.796
-75.896
-71.157
-66.587
-62.197
-57.991
-53.974
-50.15
-46.52
-43.084
-39.842
-36.791
-33.928
-31.248
-28.745
-26.414
-24.248
-22.238
-20.376
-18.654
-17.06
-15.586
-14.221
-12.954
-11.772
-10.664
-9.618
-8.622
-7.665
-6.736
-5.824
-4.917
-4.004
-3.078
-2.126
-1.14
-0.109
0.977
2.126
3.347
4.648
6.036
7.52
9.107
10.803
12.612
14.539
16.589
18.768
21.078
23.521
26.097
28.808
31.653
34.631
37.736
40.959
44.292
47.724
51.245
54.845
58.509
62.224
65.977
69.762
73.569
77.386
81.199
84.991
88.744
92.446
96.081
99.634
103.086
106.42
109.629
112.711
115.659
118.464
121.104
123.547
125.77
127.76
129.501
130.985
132.207
133.169
133.892
134.422
134.793
135.039
135.176
135.208
135.16
135.068
134.977
134.945
135.007
135.187
135.514
135.994
136.596
137.272
137.931
138.466
138.784
138.791
138.401
137.531
136.075
133.934
130.95
126.899
121.696
115.34
107.944
99.91
91.752
83.981
77.322
72.559
70.06
70
72.172
75.402
78.153
78.88
75.806
68.574
58.702
47.291
35.033
20.528
0.769
-22.944
-42.757
-44.037
-11.357
63.088
174.048
303.321
432.561
549.224
650.931
747.756
844.303
936.397
1012.908
1049.013
1024.632
932.065
769.993
556.899
322.283
94.154
-95.41
-227.548
-301.099
-322.337
-309.588
-279.988
-243.413
-208.6
-177.723
-152.931
-134.88
-118.124
-99.332
-74.911
-45.054
-16.893
5.116
18.693
24.08
25.129
23.621
19.793
14.308
7.93
2.128
-1.809
-3.65
-3.656
-1.995
1.23
5.8
10.977
15.642
19.122
21.248
22.195
22.349
21.946
21.128
20.217
19.652
19.709
20.519
22.059
24.151
26.694
29.645
32.937
36.509
40.289
44.203
48.194
52.222
56.255
60.273
64.258
68.195
72.083
75.93
79.754
83.596
87.483
91.427
95.44
99.521
103.679
107.933
112.296
116.781
121.395
126.143
131.029
136.06
141.235
146.546
151.982
157.525
163.161
168.879
174.665
180.504
186.38
192.273
198.164
204.035
209.862
215.62
221.284
226.825
232.215
237.428
242.436
247.212
251.726
255.953
259.865
263.438
266.646
269.466
271.873
273.847
275.368
276.418
276.981
277.041
276.587
275.609
274.101
272.057
269.478
266.363
262.718
258.548
253.864
248.677
243.002
236.856
230.259
223.232
215.799
207.988
199.825
191.342
182.569
173.539
164.286
154.844
145.248
135.534
125.736
115.891
106.034
96.201
86.426
76.743
67.185
57.784
48.57
39.572
30.816
22.326
14.126
6.234
-1.331
-8.554
-15.423
-21.926
-28.055
-33.804
-39.17
-44.151
-48.748
-52.964
-56.805
-60.277
-63.39
-66.154
-68.582
-70.687
-72.484
-73.99
-75.223
-76.2
-76.94
-77.465
-77.794
-77.949
-77.95
-77.818
-77.575
-77.24
-76.834
-76.375
-75.881
-75.369
-74.856
-74.356
-73.885
-73.454
-73.076
-72.761
-72.518
-72.356
-72.281
-72.301
-72.419
-72.639
-72.965
-73.398
-73.941
-74.592
-75.353
-76.221
-77.195
-78.271
-79.446
-80.716
-82.076
-83.521
-85.045
-86.642
-88.307
-90.033
-91.814
-93.644
-95.516
-97.426
-99.365
-101.329
-103.31
-105.302
-107.3
-109.299
-111.292
-113.275
-115.242
-117.187
-119.104
-120.987
-122.83
-124.626
-126.367
-128.047
-129.658
-131.194
-132.648
-134.013
-135.281
-136.448
-137.508
-138.454
-139.28
-139.98
-140.549
-140.983
-141.278
-141.432
-141.442
-141.306
-141.026
-140.604
-140.044
-139.349
-138.521
-137.564
-136.483
-135.289
-133.991
-132.596
-131.11
-129.543
-127.907
-126.218
-124.491
-122.736
-120.962
-119.179
-117.4
-115.645
-113.929
-112.258
-110.631
-109.052
-107.525
-106.07
-104.702
-103.423
-102.234
-101.138
-100.132
-99.222
-98.408
-97.662
-96.962
-96.28
-95.585
-94.887
-94.186
-93.484
-92.807
-92.136
-91.446
-90.737
-89.963
-89.091
-88.177
-87.242
-86.289
-85.457
-84.855
-84.713
-85.47
-87.347
-90.341
-94.407
-99.359
-104.989
-111.225
-117.572
-123.031
-126.931
-128.846
-128.691
-126.936
-123.8
-119.12
-113.305
-107.554
-103.226
-101.658
-103.482
-108.472
-116.77
-129.15
-146.087
-165.663
-183.449
-195.348
-199.07
-196.831
-192.929
-186.329
-169.481
-130.249
-59.331
43.727
169.569
303.751
438.136
567.594
685.873
785.027
846.516
851.064
792.254
672.934
507.061
316.631
118.472
-73.178
-241.595
-375.745
-471.043
-526.004
-549.237
-552.05
-536.369
-506.416
-467.448
-421.933
-380.721
-348.87
-321.566
-296.307
-267.735
-235.187
-205.675
-182.433
-166.904
-158.563
-153.483
-149.723
-146.366
-141.641
-134.925
-126.035
-114.85
-102.187
-88.916
-75.519
-62.839
-52.082
-43.991
-38.926
-36.924
-37.463
-39.968
-43.956
-48.769
-53.733
-58.392
-62.432
-65.651
-67.978
-69.342
-69.682
-69.01
-67.366
-64.786
-61.298
-56.939
-51.801
-46.029
-39.816
-33.361
-26.793
-20.2
-13.654
-7.21
-0.933
5.133
10.991
16.659
22.147
27.464
32.617
37.618
42.523
47.398
52.315
57.353
62.565
67.986
73.645
79.558
85.731
92.165
98.842
105.734
112.821
120.085
127.507
135.071
142.745
150.496
158.288
166.08
173.833
181.509
189.069
196.474
203.688
210.675
217.401
223.836
229.945
235.692
241.042
245.96
250.41
254.36
257.78
260.64
262.913
264.576
265.61
266
265.733
264.799
263.193
260.913
257.961
254.342
250.065
245.142
239.591
233.429
226.682
219.375
211.538
203.204
194.409
185.19
175.589
165.646
155.406
144.914
134.216
123.361
112.395
101.368
90.326
79.318
68.39
57.59
46.96
36.544
26.382
16.512
6.971
-2.208
-10.996
-19.364
-27.289
-34.749
-41.726
-48.204
-54.174
-59.626
-64.555
-68.961
-72.844
-76.21
-79.066
-81.424
-83.296
-84.699
-85.651
-86.174
-86.29
-86.023
-85.4
-84.448
-83.196
-81.671
-79.905
-77.927
-75.767
-73.456
-71.022
-68.494
-65.901
-63.27
-60.626
-57.996
-55.401
-52.864
-50.405
-48.044
-45.796
-43.677
-41.7
-39.877
-38.218
-36.729
-35.417
-34.286
-33.339
-32.575
-31.994
-31.594
-31.371
-31.319
-31.432
-31.702
-32.122
-32.682
-33.373
-34.186
-35.109
-36.134
-37.25
-38.448
-39.718
-41.052
-42.44
-43.874
-45.345
-46.847
-48.373
-49.915
-51.469
-53.028
-54.588
-56.145
-57.695
-59.234
-60.759
-62.268
-63.758
-65.227
-66.672
-68.092
-69.486
-70.853
-72.192
-73.504
-74.787
-76.042
-77.266
-78.459
-79.62
-80.744
-81.83
-82.873
-83.868
-84.812
-85.699
-86.525
-87.282
-87.966
-88.569
-89.086
-89.511
-89.836
-90.054
-90.16
-90.15
-90.02
-89.765
-89.384
-88.876
-88.243
-87.489
-86.616
-85.627
-84.527
-83.322
-82.021
-80.635
-79.168
-77.625
-76.012
-74.337
-72.614
-70.855
-69.068
-67.26
-65.442
-63.625
-61.828
-60.071
-58.36
-56.692
-55.066
-53.487
-51.975
-50.558
-49.256
-48.072
-47.016
-46.098
-45.331
-44.731
-44.283
-43.948
-43.684
-43.445
-43.217
-43.014
-42.85
-42.732
-42.632
-42.482
-42.22
-41.825
-41.289
-40.627
-39.839
-38.863
-37.739
-36.702
-36.109
-36.332
-37.569
-39.707
-42.577
-46.263
-50.854
-56.179
-61.675
-66.45
-69.852
-71.941
-73.1
-73.329
-72.417
-70.3
-67.472
-65.287
-65.233
-67.94
-73.45
-82.038
-94.092
-109.953
-129.377
-150.547
-170.463
-186.409
-195.897
-195.95
-183.465
-155.116
-107.589
-40.992
40.92
134.859
236.478
344.267
460.623
580.708
694.925
787.685
836.4
830.673
772.403
671.933
550.302
417.87
272.994
116.153
-52.945
-220.445
-358.605
-450.908
-491.152
-487.666
-463.847
-434.037
-403.226
-371.822
-333.332
-286.531
-235.995
-186.014
-141.883
-107.215
-82.75
-67.986
-61.564
-61.743
-66.754
-75.138
-85.346
-95.153
-102.546
-106.529
-106.827
-103.839
-98.348
-90.931
-82.235
-73.405
-65.602
-59.45
-55.148
-52.457
-50.87
-50.053
-49.748
-49.55
-49.041
-47.971
-46.222
-43.85
-41.033
-37.877
-34.437
-30.778
-26.955
-23.029
-19.06
-15.091
-11.154
-7.269
-3.448
0.307
3.994
7.625
11.22
14.808
18.435
22.135
25.93
29.835
33.859
38.021
42.342
46.848
51.556
56.483
61.639
67.033
72.673
78.561
84.691
91.051
97.625
104.396
111.351
118.474
125.747
133.148
140.653
148.236
155.87
163.524
171.165
178.756
186.258
193.634
200.846
207.856
214.625
221.113
227.284
233.1
238.525
243.525
248.067
252.117
255.647
258.632
261.045
262.867
264.079
264.667
264.617
263.924
262.583
260.592
257.954
254.677
250.769
246.244
241.119
235.415
229.153
222.362
215.069
207.308
199.113
190.52
181.568
172.298
162.75
152.967
142.992
132.868
122.639
112.346
102.032
91.738
81.505
71.37
61.37
51.54
41.912
32.517
23.383
14.534
5.993
-2.221
-10.09
-17.602
-24.743
-31.508
-37.888
-43.882
-49.489
-54.709
-59.548
-64.012
-68.108
-71.847
-75.241
-78.303
-81.049
-83.493
-85.653
-87.546
-89.191
-90.604
-91.805
-92.812
-93.641
-94.31
-94.836
-95.234
-95.52
-95.708
-95.811
-95.84
-95.806
-95.72
-95.589
-95.421
-95.221
-94.996
-94.749
-94.484
-94.204
-93.912
-93.608
-93.295
-92.972
-92.64
-92.299
-91.949
-91.588
-91.218
-90.837
-90.445
-90.044
-89.634
-89.216
-88.793
-88.367
-87.941
-87.519
-87.105
-86.703
-86.32
-85.959
-85.629
-85.335
-85.085
-84.885
-84.744
-84.668
-84.666
-84.744
-84.907
-85.162
-85.515
-85.968
-86.526
-87.191
-87.964
-88.846
-89.837
-90.936
-92.14
-93.445
-94.845
-96.334
-97.904
-99.546
-101.249
-103.001
-104.789
-106.601
-108.423
-110.239
-112.035
-113.792
-115.497
-117.132
-118.681
-120.128
-121.455
-122.647
-123.689
-124.57
-125.277
-125.799
-126.129
-126.259
-126.188
-125.915
-125.439
-124.76
-123.881
-122.807
-121.55
-120.12
-118.526
-116.779
-114.891
-112.878
-110.762
-108.563
-106.295
-103.97
-101.606
-99.221
-96.839
-94.484
-92.165
-89.891
-87.672
-85.521
-83.468
-81.535
-79.73
-78.059
-76.528
-75.138
-73.903
-72.825
-71.878
-71.041
-70.285
-69.579
-68.93
-68.33
-67.772
-67.266
-66.773
-66.258
-65.706
-65.074
-64.333
-63.525
-62.656
-61.715
-60.817
-60.084
-59.76
-60.276
-61.846
-64.478
-68.137
-72.74
-78.202
-84.4
-90.76
-96.206
-99.955
-101.634
-101.215
-98.97
-94.94
-89.143
-82.261
-75.844
-71.562
-70.643
-73.678
-80.607
-91.491
-106.49
-125.086
-145.514
-164.829
-179.757
-187.256
-184.777
-169.582
-138.579
-89.173
-19.705
68.041
168.648
276.558
385.954
493.565
601.544
708.987
808.721
888.807
928.914
910.75
829.637
689.676
503.914
293.083
74.266
-134.414
-310.933
-440.216
-513.471
-533.271
-515.217
-476.312
-431.561
-388.075
-346.632
-306.827
-265.38
-222.784
-181.259
-142.355
-111.498
-91.006
-80.095
-78.235
-81.761
-87.654
-94.693
-100.51
-103.315
-102.47
-97.558
-89.009
-77.952
-65.257
-51.767
-38.834
-27.794
-19.405
-13.958
-11.244
-10.652
-11.618
-13.653
-16.157
-18.538
-20.43
-21.642
-22.137
-21.986
-21.224
-19.814
-17.713
-14.908
-11.385
-7.163
-2.304
3.102
8.897
14.917
21.035
27.16
33.239
39.251
45.186
51.044
56.847
62.602
68.28
73.857
79.306
84.623
89.834
94.985
100.14
105.359
110.698
116.196
121.879
127.758
133.83
140.08
146.48
153.009
159.657
166.412
173.267
180.208
187.215
194.263
201.324
208.364
215.35
222.243
229.008
235.611
242.022
248.21
254.151
259.816
265.177
270.204
274.867
279.137
282.984
286.378
289.292
291.699
293.577
294.906
295.668
295.85
295.439
294.427
292.81
290.584
287.751
284.314
280.28
275.658
270.461
264.705
258.407
251.59
244.276
236.494
228.273
219.645
210.642
201.301
191.658
181.751
171.619
161.302
150.841
140.278
129.653
119.009
108.387
97.828
87.371
77.055
66.917
56.99
47.308
37.902
28.8
20.028
11.61
3.566
-4.082
-11.321
-18.135
-24.514
-30.449
-35.936
-40.97
-45.551
-49.682
-53.367
-56.613
-59.428
-61.824
-63.815
-65.415
-66.64
-67.51
-68.044
-68.263
-68.189
-67.845
-67.255
-66.441
-65.429
-64.241
-62.901
-61.434
-59.861
-58.205
-56.487
-54.73
-52.951
-51.172
-49.408
-47.676
-45.992
-44.369
-42.821
-41.359
-39.992
-38.729
-37.579
-36.548
-35.64
-34.86
-34.21
-33.691
-33.303
-33.046
-32.919
-32.918
-33.041
-33.284
-33.642
-34.112
-34.688
-35.366
-36.138
-37.001
-37.948
-38.974
-40.072
-41.238
-42.465
-43.748
-45.084
-46.466
-47.892
-49.357
-50.855
-52.384
-53.939
-55.517
-57.113
-58.723
-60.342
-61.967
-63.595
-65.222
-66.843
-68.456
-70.055
-71.636
-73.195
-74.727
-76.226
-77.685
-79.099
-80.461
-81.765
-83.005
-84.173
-85.261
-86.262
-87.17
-87.976
-88.675
-89.257
-89.715
-90.043
-90.236
-90.289
-90.196
-89.955
-89.563
-89.022
-88.334
-87.502
-86.529
-85.42
-84.181
-82.819
-81.342
-79.756
-78.066
-76.281
-74.409
-72.466
-70.466
-68.422
-66.35
-64.263
-62.178
-60.115
-58.088
-56.103
-54.169
-52.298
-50.508
-48.832
-47.295
-45.909
-44.69
-43.649
-42.794
-42.128
-41.641
-41.295
-41.062
-40.918
-40.849
-40.863
-40.951
-41.084
-41.227
-41.331
-41.368
-41.339
-41.227
-41.007
-40.698
-40.344
-40.042
-39.939
-40.116
-40.631
-41.558
-42.951
-44.902
-47.513
-50.83
-54.951
-60.043
-66.184
-73.362
-81.45
-90.056
-98.71
-106.975
-114.21
-119.635
-122.683
-123.209
-121.518
-118.356
-114.9
-112.297
-111.767
-115.296
-123.062
-132.686
-142.218
-149.159
-154.506
-163.985
-177.361
-188.522
-184.734
-148.033
-71.81
39.65
175.166
319.778
465.638
606.308
731.075
823.017
862.216
839.397
758.298
636.673
495.434
343.024
183.662
18.452
-146.443
-289.531
-394.013
-452.328
-467.999
-460.322
-443.665
-423.504
-400.582
-369.251
-328.46
-282.51
-235.892
-193.632
-158.751
-132.373
-114.701
-104.812
-101.287
-102.474
-106.969
-113.746
-121.276
-127.406
-130.713
-130.602
-127.097
-120.906
-112.658
-102.763
-92.089
-81.952
-73.225
-66.289
-61.198
-57.522
-54.822
-52.864
-51.246
-49.441
-47.147
-44.21
-40.579
-36.412
-31.846
-26.931
-21.766
-16.441
-10.997
-5.496
0.016
5.512
10.929
16.215
21.345
26.294
31.055
35.639
40.053
44.321
48.487
52.579
56.62
60.625
64.603
68.569
72.55
76.571
80.659
84.834
89.114
93.518
98.061
102.752
107.593
112.582
117.709
122.971
128.363
133.881
139.517
145.26
151.098
157.017
163.001
169.031
175.083
181.131
187.149
193.107
198.979
204.735
210.344
215.775
220.996
225.977
230.688
235.096
239.172
242.885
246.207
249.112
251.573
253.568
255.075
256.074
256.549
256.486
255.874
254.705
252.973
250.676
247.814
244.393
240.419
235.902
230.855
225.294
219.24
212.714
205.742
198.35
190.569
182.429
173.965
165.212
156.205
146.982
137.58
128.04
118.399
108.697
98.972
89.264
79.609
70.046
60.609
51.332
42.249
33.391
24.786
16.462
8.442
0.751
-6.593
-13.572
-20.17
-26.375
-32.178
-37.569
-42.545
-47.104
-51.244
-54.97
-58.284
-61.195
-63.71
-65.841
-67.6
-69.001
-70.06
-70.792
-71.216
-71.35
-71.214
-70.828
-70.211
-69.385
-68.371
-67.188
-65.858
-64.401
-62.836
-61.182
-59.458
-57.681
-55.869
-54.037
-52.201
-50.375
-48.573
-46.808
-45.091
-43.433
-41.843
-40.33
-38.901
-37.563
-36.322
-35.183
-34.149
-33.225
-32.413
-31.716
-31.135
-30.672
-30.326
-30.099
-29.989
-29.996
-30.12
-30.359
-30.713
-31.179
-31.758
-32.448
-33.248
-34.155
-35.168
-36.284
-37.5
-38.813
-40.22
-41.714
-43.291
-44.946
-46.674
-48.469
-50.323
-52.228
-54.178
-56.164
-58.177
-60.208
-62.245
-64.279
-66.298
-68.291
-70.248
-72.157
-74.006
-75.782
-77.473
-79.069
-80.557
-81.924
-83.157
-84.246
-85.179
-85.946
-86.538
-86.946
-87.164
-87.187
-87.016
-86.649
-86.088
-85.337
-84.4
-83.283
-81.995
-80.543
-78.934
-77.176
-75.278
-73.256
-71.126
-68.907
-66.612
-64.261
-61.87
-59.459
-57.051
-54.66
-52.297
-49.975
-47.713
-45.536
-43.489
-41.598
-39.884
-38.364
-37.049
-35.945
-35.06
-34.376
-33.857
-33.47
-33.185
-32.981
-32.863
-32.808
-32.783
-32.745
-32.623
-32.381
-32.014
-31.507
-30.863
-30.113
-29.302
-28.526
-27.932
-27.646
-27.789
-28.479
-29.808
-31.9
-34.866
-38.852
-44.052
-50.514
-58.179
-66.88
-76.232
-85.837
-95.332
-104.128
-111.551
-117.217
-120.855
-122.618
-123.32
-123.566
-123.924
-125.261
-128.093
-132.532
-138.876
-146.642
-153.835
-158.795
-158.639
-148.367
-125.848
-90.488
-42.558
12.135
70.871
136.896
212.713
305.712
419.556
546.48
675.601
787.994
863.09
887.056
849.77
752.362
603.199
415.007
208.309
2.508
-180.98
-321.993
-414.006
-459.184
-470.575
-467.561
-459.971
-450.085
-433.982
-404.755
-362.444
-311.633
-258.196
-208.317
-164.94
-129.468
-103.119
-85.545
-75.854
-72.948
-75.087
-80.813
-88.729
-96.652
-102.49
-105.155
-104.311
-100.276
-93.847
-85.733
-76.627
-67.697
-60.097
-54.344
-50.566
-48.502
-47.626
-47.585
-48.082
-48.644
-48.804
-48.304
-47.011
-44.954
-42.236
-38.827
-34.72
-29.976
-24.708
-19.098
-13.29
-7.373
-1.431
4.464
10.252
15.88
21.332
26.643
31.829
36.904
41.871
46.686
51.333
55.821
60.173
64.441
68.68
72.921
77.211
81.598
86.115
90.788
95.629
100.62
105.749
111.014
116.406
121.933
127.594
133.38
139.279
145.279
151.359
157.503
163.688
169.883
176.059
182.187
188.24
194.195
200.028
205.707
211.203
216.486
221.524
226.286
230.739
234.847
238.578
241.9
244.782
247.198
249.12
250.523
251.386
251.69
251.419
250.559
249.1
247.035
244.36
241.075
237.184
232.692
227.611
221.953
215.735
208.977
201.705
193.943
185.722
177.073
168.031
158.632
148.914
138.917
128.682
118.251
107.667
96.976
86.222
75.448
64.7
54.02
43.451
33.033
22.805
12.804
3.066
-6.378
-15.497
-24.264
-32.654
-40.645
-48.22
-55.361
-62.058
-68.299
-74.079
-79.394
-84.244
-88.631
-92.559
-96.037
-99.073
-101.679
-103.871
-105.663
-107.074
-108.123
-108.832
-109.221
-109.314
-109.136
-108.71
-108.06
-107.213
-106.191
-105.02
-103.723
-102.324
-100.844
-99.306
-97.729
-96.132
-94.534
-92.95
-91.397
-89.887
-88.433
-87.047
-85.736
-84.511
-83.378
-82.342
-81.41
-80.584
-79.866
-79.26
-78.765
-78.382
-78.108
-77.943
-77.884
-77.928
-78.071
-78.31
-78.639
-79.055
-79.553
-80.128
-80.774
-81.487
-82.259
-83.087
-83.965
-84.887
-85.847
-86.84
-87.86
-88.902
-89.961
-91.031
-92.106
-93.18
-94.248
-95.302
-96.338
-97.348
-98.325
-99.261
-100.149
-100.983
-101.755
-102.457
-103.083
-103.623
-104.073
-104.425
-104.673
-104.811
-104.832
-104.731
-104.505
-104.15
-103.665
-103.045
-102.291
-101.403
-100.384
-99.24
-97.975
-96.595
-95.106
-93.518
-91.84
-90.082
-88.251
-86.354
-84.401
-82.403
-80.377
-78.337
-76.298
-74.274
-72.28
-70.333
-68.448
-66.637
-64.902
-63.249
-61.684
-60.224
-58.895
-57.716
-56.698
-55.852
-55.183
-54.69
-54.367
-54.194
-54.126
-54.13
-54.177
-54.246
-54.338
-54.436
-54.511
-54.535
-54.452
-54.223
-53.834
-53.25
-52.443
-51.443
-50.297
-49.095
-47.978
-47.023
-46.293
-45.885
-45.873
-46.359
-47.445
-49.174
-51.641
-55.03
-59.439
-64.874
-71.116
-77.621
-83.831
-89.248
-93.221
-95.089
-94.386
-90.93
-85.348
-78.954
-72.935
-68.654
-67.608
-70.742
-78.856
-91.002
-103.237
-112.687
-117.517
-117.026
-113.485
-102.956
-76.119
-24.393
60.105
172.519
297.772
421.645
532.181
629.782
720.355
803.004
870.257
901.497
874.956
781.188
621.314
414.245
187.614
-33.44
-223.791
-367.581
-459.196
-500.071
-501.771
-479.561
-446.513
-410.419
-373.289
-333.558
-289.09
-241.949
-196.017
-155.355
-124.559
-104.618
-93.88
-90.61
-92.308
-96.608
-102.29
-107.739
-110.728
-110.283
-106.295
-99.006
-89.426
-78.625
-67.262
-56.36
-47.249
-40.56
-36.428
-34.672
-34.68
-35.888
-37.914
-40.28
-42.431
-44.034
-44.928
-45.066
-44.539
-43.404
-41.627
-39.157
-36.008
-32.218
-27.866
-23.102
-18.026
-12.736
-7.357
-1.982
3.324
8.507
13.568
18.541
23.441
28.282
33.069
37.761
42.345
46.831
51.244
55.642
60.082
64.599
69.24
74.05
79.062
84.297
89.759
95.421
101.265
107.28
113.454
119.788
126.274
132.895
139.635
146.472
153.381
160.338
167.315
174.275
181.181
188.003
194.709
201.273
207.667
213.86
219.82
225.515
230.915
235.988
240.704
245.029
248.932
252.385
255.363
257.841
259.799
261.216
262.074
262.361
262.065
261.177
259.691
257.605
254.918
251.635
247.76
243.304
238.278
232.699
226.584
219.955
212.835
205.251
197.232
188.809
180.014
170.881
161.446
151.745
141.817
131.7
121.432
111.054
100.606
90.127
79.656
69.231
58.89
48.669
38.603
28.726
19.069
9.663
0.536
-8.286
-16.779
-24.92
-32.692
-40.077
-47.06
-53.629
-59.776
-65.492
-70.773
-75.618
-80.026
-83.999
-87.543
-90.664
-93.372
-95.676
-97.589
-99.125
-100.299
-101.128
-101.629
-101.82
-101.722
-101.354
-100.738
-99.895
-98.846
-97.614
-96.221
-94.689
-93.04
-91.295
-89.474
-87.598
-85.688
-83.76
-81.835
-79.929
-78.058
-76.239
-74.485
-72.81
-71.225
-69.741
-68.367
-67.113
-65.984
-64.987
-64.126
-63.406
-62.829
-62.398
-62.114
-61.977
-61.985
-62.138
-62.432
-62.863
-63.426
-64.117
-64.928
-65.851
-66.881
-68.008
-69.224
-70.52
-71.886
-73.311
-74.786
-76.298
-77.836
-79.388
-80.943
-82.488
-84.011
-85.502
-86.949
-88.341
-89.667
-90.916
-92.078
-93.144
-94.104
-94.95
-95.672
-96.266
-96.724
-97.041
-97.215
-97.241
-97.12
-96.853
-96.443
-95.895
-95.213
-94.403
-93.473
-92.432
-91.29
-90.053
-88.729
-87.328
-85.861
-84.343
-82.79
-81.215
-79.631
-78.052
-76.494
-74.974
-73.503
-72.085
-70.727
-69.438
-68.235
-67.144
-66.187
-65.373
-64.713
-64.213
-63.873
-63.692
-63.652
-63.713
-63.843
-64.012
-64.199
-64.405
-64.613
-64.792
-64.907
-64.898
-64.729
-64.392
-63.861
-63.116
-62.182
-61.1
-59.962
-58.923
-58.074
-57.49
-57.269
-57.482
-58.242
-59.668
-61.813
-64.772
-68.688
-73.637
-79.629
-86.482
-93.743
-100.931
-107.611
-113.24
-117.202
-118.94
-118.161
-115.313
-111.338
-107.178
-103.798
-102.075
-103.088
-108.307
-117.166
-126.133
-131.773
-130.709
-123.66
-116.605
-110.347
-100.39
-76.042
-21.345
69.726
192.31
334.219
478.323
613.922
735.288
835.142
904.362
927.637
889.998
787.136
622.956
414.146
187.231
-33.697
-222.869
-362.052
-450.088
-492.017
-502.212
-496.29
-476.771
-444.096
-399.268
-346.203
-297.249
-262.004
-241.2
-228.104
-213.427
-192.38
-166.624
-142.572
-124.739
-113.561
-107.729
-104.694
-102.864
-101.908
-101.245
-100.068
-98.04
-95.22
-91.664
-87.48
-82.763
-77.611
-72.443
-68.011
-64.667
-62.305
-60.74
-59.686
-58.937
-58.416
-57.899
-56.999
-55.47
-53.221
-50.21
-46.496
-42.138
-37.174
-31.738
-26.006
-20.11
-14.173
-8.298
-2.538
3.065
8.485
13.738
18.842
23.803
28.632
33.325
37.868
42.268
46.551
50.762
54.943
59.133
63.369
67.69
72.136
76.736
81.5
86.423
91.495
96.713
102.074
107.578
113.224
119.005
124.909
130.924
137.036
143.228
149.48
155.769
162.065
168.342
174.574
180.738
186.809
192.759
198.558
204.176
209.584
214.751
219.646
224.237
228.491
232.378
235.869
238.938
241.559
243.707
245.362
246.503
247.114
247.18
246.69
245.633
244.005
241.802
239.022
235.67
231.751
227.274
222.25
216.696
210.628
204.069
197.041
189.572
181.688
173.422
164.806
155.874
146.663
137.208
127.55
117.727
107.78
97.749
87.673
77.594
67.55
57.581
47.723
38.013
28.485
19.174
10.11
1.323
-7.158
-15.309
-23.105
-30.527
-37.557
-44.177
-50.375
-56.14
-61.466
-66.345
-70.776
-74.758
-78.294
-81.389
-84.05
-86.286
-88.108
-89.531
-90.569
-91.239
-91.561
-91.553
-91.237
-90.634
-89.769
-88.665
-87.345
-85.835
-84.158
-82.34
-80.405
-78.379
-76.286
-74.149
-71.994
-69.842
-67.716
-65.637
-63.626
-61.701
-59.879
-58.178
-56.611
-55.193
-53.935
-52.846
-51.936
-51.211
-50.678
-50.34
-50.199
-50.256
-50.511
-50.959
-51.599
-52.425
-53.429
-54.604
-55.94
-57.428
-59.057
-60.815
-62.688
-64.661
-66.72
-68.848
-71.029
-73.245
-75.476
-77.706
-79.914
-82.082
-84.193
-86.229
-88.17
-90.001
-91.705
-93.267
-94.672
-95.907
-96.958
-97.814
-98.467
-98.907
-99.13
-99.129
-98.902
-98.448
-97.772
-96.879
-95.775
-94.465
-92.96
-91.268
-89.406
-87.386
-85.219
-82.916
-80.493
-77.967
-75.361
-72.698
-69.994
-67.271
-64.546
-61.84
-59.179
-56.577
-54.045
-51.595
-49.239
-46.997
-44.907
-42.995
-41.276
-39.765
-38.468
-37.387
-36.527
-35.871
-35.381
-35.027
-34.774
-34.606
-34.522
-34.497
-34.513
-34.537
-34.514
-34.421
-34.229
-33.892
-33.4
-32.773
-32.055
-31.363
-30.777
-30.336
-30.229
-30.618
-31.671
-33.61
-36.381
-39.916
-44.457
-50.162
-56.86
-64.291
-71.754
-78.4
-84.14
-88.806
-91.728
-92.474
-90.927
-87.525
-83.959
-82.024
-82.289
-85.436
-92.474
-103.817
-119.824
-138.418
-154.053
-163.105
-163.939
-156.389
-143.333
-121.269
-80.939
-16.297
76.849
193.183
317.797
440.795
557.598
666.517
766.846
849.537
895.615
886.988
816.238
686.589
512.48
315.674
113.201
-78.909
-242.437
-367.074
-446.553
-479.824
-478.152
-452.597
-412.681
-369.513
-327.859
-291.54
-262.135
-235.245
-208.283
-179.209
-149.292
-124.409
-107.26
-98.844
-98.191
-101.171
-105.544
-109.949
-112.291
-111.977
-108.915
-102.863
-94.479
-84.689
-74.006
-63.344
-54.083
-46.935
-42.173
-39.812
-39.286
-40.012
-41.619
-43.611
-45.428
-46.754
-47.386
-47.236
-46.414
-44.987
-42.958
-40.334
-37.061
-33.119
-28.542
-23.41
-17.856
-12.018
-6.012
0.065
6.133
12.136
18.039
23.839
29.572
35.266
40.94
46.581
52.135
57.577
62.914
68.173
73.415
78.69
84.028
89.466
95.044
100.787
106.709
112.801
119.029
125.368
131.8
138.313
144.908
151.572
158.289
165.037
171.792
178.53
185.226
191.848
198.358
204.721
210.907
216.887
222.637
228.134
233.346
238.248
242.811
247.008
250.814
254.201
257.14
259.606
261.577
263.034
263.959
264.34
264.163
263.421
262.108
260.224
257.768
254.743
251.156
247.016
242.334
237.125
231.406
225.199
218.525
211.41
203.882
195.972
187.71
179.132
170.27
161.162
151.843
142.353
132.728
123.007
113.23
103.435
93.663
83.951
74.336
64.854
55.54
46.424
37.537
28.908
20.562
12.521
4.808
-2.559
-9.563
-16.189
-22.427
-28.267
-33.703
-38.731
-43.349
-47.557
-51.359
-54.76
-57.766
-60.386
-62.63
-64.511
-66.042
-67.239
-68.117
-68.694
-68.99
-69.025
-68.818
-68.391
-67.764
-66.958
-65.994
-64.894
-63.676
-62.361
-60.967
-59.514
-58.02
-56.502
-54.977
-53.46
-51.967
-50.51
-49.103
-47.758
-46.485
-45.294
-44.193
-43.191
-42.295
-41.511
-40.845
-40.3
-39.88
-39.588
-39.425
-39.393
-39.49
-39.717
-40.072
-40.553
-41.158
-41.883
-42.724
-43.676
-44.736
-45.899
-47.159
-48.509
-49.944
-51.456
-53.038
-54.683
-56.383
-58.128
-59.91
-61.72
-63.549
-65.389
-67.23
-69.061
-70.873
-72.656
-74.401
-76.099
-77.741
-79.316
-80.816
-82.234
-83.561
-84.791
-85.918
-86.935
-87.838
-88.628
-89.303
-89.864
-90.311
-90.646
-90.871
-90.992
-91.01
-90.928
-90.747
-90.47
-90.103
-89.655
-89.137
-88.557
-87.926
-87.252
-86.549
-85.83
-85.105
-84.374
-83.642
-82.918
-82.217
-81.569
-80.999
-80.516
-80.134
-79.859
-79.689
-79.622
-79.635
-79.684
-79.729
-79.735
-79.681
-79.567
-79.378
-79.086
-78.656
-78.033
-77.186
-76.114
-74.802
-73.244
-71.486
-69.589
-67.669
-65.901
-64.4
-63.271
-62.636
-62.578
-63.222
-64.706
-67.107
-70.555
-75.221
-81.148
-88.295
-96.455
-105.094
-113.628
-121.516
-128.034
-132.442
-134.275
-133.339
-130.044
-125.532
-121.036
-117.662
-116.546
-118.697
-124.645
-134.158
-145.785
-156.774
-163.698
-162.843
-150.467
-122.798
-77.549
-15.082
62.704
152.314
251.97
362.819
483.806
610.084
728.423
818.733
863.945
852.584
785.596
673.467
526.159
356.23
174.753
-6.599
-168.345
-294.082
-375.521
-413.263
-421.088
-415.418
-404.982
-392.42
-374.397
-346.145
-309.054
-267.881
-227.721
-193.498
-167.13
-148.557
-137.263
-131.963
-130.839
-132.068
-134.076
-135.39
-135.046
-132.403
-127.057
-119.14
-109.317
-98.487
-87.582
-77.572
-69.011
-62.194
-57.305
-54.182
-52.519
-51.909
-51.761
-51.494
-50.771
-49.407
-47.328
-44.582
-41.183
-37.154
-32.615
-27.685
-22.456
-16.994
-11.319
-5.458
0.525
6.542
12.492
18.302
23.943
29.403
34.68
39.783
44.72
49.515
54.216
58.856
63.462
68.055
72.645
77.253
81.909
86.642
91.481
96.449
101.559
106.824
112.252
117.845
123.601
129.514
135.572
141.763
148.081
154.513
161.048
167.672
174.365
181.107
187.877
194.648
201.391
208.075
214.666
221.131
227.435
233.543
239.417
245.022
250.32
255.277
259.857
264.026
267.75
270.999
273.742
275.954
277.608
278.684
279.16
279.021
278.254
276.848
274.797
272.098
268.751
264.759
260.131
254.878
249.014
242.557
235.53
227.958
219.868
211.292
202.266
192.826
183.013
172.867
162.432
151.754
140.878
129.852
118.723
107.537
96.342
85.184
74.108
63.16
52.382
41.815
31.498
21.468
11.76
2.407
-6.563
-15.123
-23.249
-30.921
-38.122
-44.837
-51.056
-56.77
-61.975
-66.668
-70.852
-74.531
-77.711
-80.403
-82.621
-84.378
-85.694
-86.588
-87.082
-87.2
-86.967
-86.409
-85.553
-84.427
-83.06
-81.479
-79.715
-77.796
-75.75
-73.605
-71.388
-69.127
-66.847
-64.572
-62.327
-60.132
-58.009
-55.978
-54.056
-52.259
-50.604
-49.102
-47.767
-46.607
-45.633
-44.85
-44.263
-43.876
-43.69
-43.704
-43.918
-44.329
-44.932
-45.722
-46.692
-47.834
-49.142
-50.605
-52.215
-53.959
-55.828
-57.809
-59.892
-62.062
-64.307
-66.613
-68.967
-71.354
-73.762
-76.176
-78.582
-80.967
-83.315
-85.613
-87.849
-90.009
-92.078
-94.044
-95.896
-97.622
-99.212
-100.656
-101.943
-103.067
-104.02
-104.797
-105.392
-105.8
-106.017
-106.041
-105.87
-105.504
-104.944
-104.191
-103.248
-102.121
-100.819
-99.355
-97.738
-95.981
-94.099
-92.105
-90.016
-87.848
-85.609
-83.314
-80.975
-78.612
-76.244
-73.89
-71.568
-69.293
-67.085
-64.963
-62.945
-61.04
-59.249
-57.58
-56.043
-54.659
-53.461
-52.469
-51.694
-51.149
-50.837
-50.757
-50.906
-51.256
-51.757
-52.368
-53.05
-53.783
-54.558
-55.344
-56.098
-56.767
-57.289
-57.631
-57.772
-57.682
-57.359
-56.83
-56.154
-55.432
-54.784
-54.307
-54.104
-54.291
-54.991
-56.35
-58.487
-61.552
-65.742
-71.139
-77.709
-85.244
-93.238
-101.096
-108.295
-114.192
-118.076
-119.525
-118.441
-115.334
-111.485
-108.296
-106.946
-108.532
-114.012
-123.858
-137.769
-154.003
-169.316
-179.981
-182.362
-172.811
-147.735
-104.028
-39.36
44.8
142.756
248.509
355.534
461.009
568.201
675.631
776.466
858.273
897.408
875.811
788.229
637.208
441.969
228.575
18.152
-165.962
-307.209
-402.264
-453.141
-472.248
-476.708
-474.481
-467.777
-453.187
-424.733
-383.147
-333.073
-280.224
-230.589
-187.019
-151.021
-124.088
-106.048
-96.054
-93.02
-95.182
-101.127
-109.594
-118.457
-125.528
-129.648
-130.419
-128.14
-123.635
-117.479
-110.194
-102.818
-96.446
-91.676
-88.714
-87.327
-87.011
-87.417
-88.258
-89.096
-89.467
-89.056
-87.698
-85.363
-82.097
-77.944
-72.956
-67.25
-61.02
-54.429
-47.591
-40.616
-33.588
-26.575
-19.642
-12.815
-6.08
0.565
7.112
13.547
19.831
25.948
31.906
37.724
43.44
49.091
54.704
60.318
65.974
71.703
77.523
83.438
89.431
95.493
101.618
107.802
114.044
120.34
126.681
133.057
139.456
145.864
152.266
158.643
164.97
171.226
177.39
183.442
189.365
195.143
200.753
206.176
211.391
216.376
221.11
225.569
229.729
233.567
237.06
240.188
242.93
245.269
247.187
248.667
249.696
250.26
250.349
249.954
249.067
247.683
245.8
243.415
240.531
237.15
233.28
228.927
224.103
218.821
213.096
206.945
200.387
193.444
186.138
178.494
170.536
162.293
153.792
145.064
136.138
127.047
117.822
108.496
99.1
89.668
80.231
70.82
61.467
52.201
43.053
34.05
25.221
16.592
8.187
0.032
-7.853
-15.445
-22.727
-29.68
-36.29
-42.542
-48.426
-53.931
-59.05
-63.777
-68.109
-72.044
-75.582
-78.726
-81.481
-83.851
-85.845
-87.473
-88.746
-89.675
-90.274
-90.559
-90.544
-90.248
-89.686
-88.879
-87.844
-86.602
-85.174
-83.579
-81.84
-79.976
-78.01
-75.962
-73.855
-71.709
-69.544
-67.382
-65.242
-63.142
-61.101
-59.135
-57.26
-55.49
-53.838
-52.315
-50.933
-49.7
-48.624
-47.711
-46.965
-46.392
-45.993
-45.77
-45.722
-45.848
-46.146
-46.613
-47.243
-48.03
-48.967
-50.044
-51.255
-52.587
-54.03
-55.572
-57.199
-58.897
-60.652
-62.45
-64.273
-66.108
-67.937
-69.745
-71.519
-73.243
-74.904
-76.487
-77.981
-79.375
-80.657
-81.818
-82.849
-83.742
-84.489
-85.087
-85.53
-85.816
-85.941
-85.908
-85.716
-85.373
-84.886
-84.261
-83.506
-82.631
-81.649
-80.572
-79.41
-78.173
-76.869
-75.512
-74.117
-72.7
-71.279
-69.867
-68.478
-67.127
-65.83
-64.6
-63.442
-62.358
-61.351
-60.428
-59.607
-58.915
-58.372
-57.986
-57.766
-57.71
-57.817
-58.075
-58.457
-58.917
-59.414
-59.913
-60.397
-60.856
-61.267
-61.6
-61.806
-61.826
-61.626
-61.174
-60.45
-59.462
-58.239
-56.837
-55.358
-53.912
-52.602
-51.548
-50.855
-50.633
-51.007
-52.067
-53.957
-56.875
-60.918
-66.063
-72.1
-78.53
-84.797
-90.423
-94.796
-97.223
-97.254
-94.773
-90.333
-85.192
-80.739
-78.175
-78.588
-83.014
-92.031
-105.363
-121.311
-136.874
-148.52
-152.508
-145.163
-122.765
-81.834
-21.114
57.203
149.038
248.947
353.57
463.06
575.794
687.292
785.501
851.812
870.245
829.297
729.983
583.558
401.696
200.588
-4.718
-199.283
-361.264
-475.948
-539.886
-558.451
-548.435
-523.089
-484.53
-432.868
-368.728
-299.63
-240.704
-201.935
-183.511
-176.808
-170.355
-157.944
-140.837
-125.472
-116.674
-115.754
-120.886
-127.679
-133.308
-136.523
-136.799
-134.718
-130.641
-124.475
-116.548
-107.455
-97.951
-89.131
-81.611
-75.427
-70.479
-66.483
-63.177
-60.389
-57.809
-54.991
-51.675
-47.784
-43.347
-38.541
-33.478
-28.189
-22.738
-17.201
-11.653
-6.171
-0.81
4.402
9.444
14.303
18.968
23.43
27.695
31.78
35.719
39.558
43.331
47.059
50.763
54.457
58.166
61.919
65.746
69.671
73.718
77.904
82.248
86.77
91.48
96.384
101.481
106.762
112.225
117.865
123.676
129.65
135.776
142.038
148.422
154.907
161.474
168.094
174.74
181.379
187.981
194.512
200.937
207.223
213.333
219.232
224.883
230.251
235.299
239.993
244.298
248.18
251.606
254.548
256.977
258.867
260.196
260.943
261.092
260.63
259.545
257.83
255.481
252.498
248.884
244.644
239.789
234.332
228.291
221.685
214.538
206.878
198.734
190.138
181.125
171.73
161.993
151.954
141.653
131.134
120.439
109.613
98.702
87.748
76.798
65.893
55.078
44.393
33.879
23.572
13.511
3.729
-5.741
-14.87
-23.629
-31.995
-39.944
-47.457
-54.516
-61.108
-67.222
-72.849
-77.984
-82.625
-86.771
-90.426
-93.594
-96.283
-98.504
-100.267
-101.589
-102.485
-102.974
-103.074
-102.809
-102.2
-101.272
-100.047
-98.553
-96.813
-94.855
-92.703
-90.384
-87.923
-85.346
-82.678
-79.942
-77.165
-74.367
-71.573
-68.804
-66.08
-63.42
-60.844
-58.367
-56.006
-53.774
-51.685
-49.751
-47.982
-46.387
-44.972
-43.744
-42.709
-41.869
-41.226
-40.781
-40.534
-40.484
-40.628
-40.962
-41.482
-42.181
-43.054
-44.094
-45.293
-46.643
-48.135
-49.757
-51.501
-53.354
-55.306
-57.343
-59.452
-61.62
-63.834
-66.081
-68.347
-70.619
-72.883
-75.127
-77.339
-79.505
-81.614
-83.654
-85.614
-87.484
-89.256
-90.92
-92.469
-93.897
-95.199
-96.373
-97.417
-98.33
-99.111
-99.762
-100.288
-100.696
-100.992
-101.18
-101.262
-101.243
-101.13
-100.931
-100.656
-100.307
-99.89
-99.412
-98.885
-98.328
-97.751
-97.153
-96.528
-95.87
-95.179
-94.472
-93.771
-93.085
-92.421
-91.783
-91.184
-90.643
-90.167
-89.741
-89.323
-88.859
-88.324
-87.716
-87.061
-86.396
-85.719
-84.984
-84.134
-83.114
-81.903
-80.536
-78.993
-77.21
-75.232
-73.181
-71.371
-70.292
-70.195
-71.06
-72.83
-75.383
-78.561
-82.333
-86.231
-89.285
-90.946
-90.988
-89.445
-86.819
-83.397
-79.05
-74.27
-70.207
-67.769
-67.974
-71.389
-77.691
-86.962
-99.615
-115.257
-132.859
-150.874
-166.61
-177.539
-181.789
-176.524
-158.627
-125.853
-76.104
-9.633
70.045
159.726
255.655
355.094
457.315
558.576
653.03
730.131
776.903
784.679
745.815
660.966
535.518
372.988
187.574
-4.826
-185.705
-329.651
-426.589
-477.27
-490.773
-486.99
-476.191
-460.082
-437.068
-401.319
-353.07
-297.88
-241.479
-190.002
-147.087
-113.82
-90.809
-77.365
-72.038
-73.303
-79.328
-88.3
-98.324
-107.403
-113.753
-116.481
-115.569
-111.414
-104.667
-96.031
-86.302
-76.506
-67.728
-60.567
-55.11
-51.162
-48.332
-46.286
-44.765
-43.409
-41.807
-39.72
-37.076
-33.929
-30.436
-26.704
-22.778
-18.719
-14.596
-10.465
-6.379
-2.377
1.523
5.31
8.978
12.528
15.967
19.307
22.571
25.795
29.025
32.293
35.624
39.035
42.542
46.166
49.937
53.88
58.019
62.372
66.955
71.783
76.869
82.219
87.831
93.699
99.808
106.15
112.712
119.481
126.44
133.571
140.848
148.248
155.743
163.302
170.892
178.475
186.012
193.466
200.796
207.963
214.927
221.647
228.083
234.196
239.948
245.3
250.217
254.662
258.604
262.01
264.853
267.106
268.747
269.756
270.117
269.817
268.847
267.204
264.884
261.892
258.235
253.924
248.974
243.404
237.236
230.496
223.214
215.422
207.156
198.454
189.355
179.902
170.139
160.109
149.86
139.437
128.888
118.259
107.597
96.948
86.359
75.873
65.534
55.382
45.459
35.8
26.442
17.417
8.754
0.48
-7.381
-14.81
-21.788
-28.303
-34.345
-39.907
-44.985
-49.579
-53.692
-57.329
-60.499
-63.212
-65.483
-67.327
-68.762
-69.807
-70.483
-70.813
-70.82
-70.53
-69.967
-69.157
-68.128
-66.906
-65.519
-63.991
-62.351
-60.623
-58.833
-57.005
-55.161
-53.325
-51.515
-49.752
-48.052
-46.432
-44.905
-43.484
-42.179
-40.998
-39.948
-39.036
-38.264
-37.634
-37.148
-36.805
-36.603
-36.541
-36.614
-36.818
-37.148
-37.597
-38.159
-38.826
-39.588
-40.437
-41.362
-42.355
-43.404
-44.5
-45.632
-46.788
-47.959
-49.134
-50.302
-51.453
-52.577
-53.663
-54.703
-55.688
-56.612
-57.465
-58.243
-58.939
-59.548
-60.067
-60.491
-60.817
-61.042
-61.162
-61.177
-61.086
-60.887
-60.581
-60.17
-59.658
-59.051
-58.359
-57.586
-56.743
-55.838
-54.881
-53.882
-52.849
-51.787
-50.702
-49.603
-48.502
-47.41
-46.339
-45.296
-44.291
-43.332
-42.43
-41.594
-40.824
-40.117
-39.475
-38.905
-38.428
-38.069
-37.85
-37.778
-37.859
-38.096
-38.491
-39.036
-39.708
-40.461
-41.25
-42.042
-42.819
-43.569
-44.263
-44.86
-45.296
-45.509
-45.459
-45.124
-44.495
-43.571
-42.377
-40.962
-39.413
-37.869
-36.468
-35.342
-34.624
-34.447
-34.926
-36.21
-38.514
-41.95
-46.521
-52.083
-58.245
-64.547
-70.62
-76.032
-80.221
-82.816
-83.675
-83.082
-82.054
-81.794
-83.183
-86.862
-93.459
-103.368
-116.545
-132.113
-146.689
-155.184
-153.519
-139.264
-114.187
-82.543
-45.749
-1.493
58.742
143.949
257.049
394.089
539.351
674.906
785.648
857.517
887.212
873.168
812.958
710.527
565.56
382.864
179.306
-26.497
-207.529
-339.171
-416.493
-445.051
-440.791
-425.388
-405.531
-379.926
-349.071
-308.924
-263.64
-223.346
-188.527
-160.769
-140.447
-122.983
-110.166
-103.537
-101.906
-105.392
-111.753
-118.091
-122.627
-124.164
-122.518
-117.97
-111.049
-102.444
-92.668
-82.566
-73.347
-65.654
-59.762
-55.708
-53.091
-51.505
-50.643
-50.057
-49.228
-47.864
-45.816
-43.041
-39.658
-35.758
-31.393
-26.655
-21.635
-16.395
-10.982
-5.441
0.197
5.87
11.493
17.01
22.383
27.589
32.628
37.504
42.226
46.819
51.321
55.756
60.143
64.497
68.827
73.15
77.493
81.877
86.326
90.861
95.498
100.25
105.127
110.134
115.267
120.522
125.891
131.365
136.939
142.605
148.355
154.176
160.055
165.977
171.925
177.88
183.818
189.716
195.545
201.281
206.894
212.358
217.642
222.716
227.552
232.119
236.387
240.329
243.915
247.118
249.912
252.27
254.171
255.593
256.516
256.922
256.796
256.125
254.9
253.113
250.759
247.836
244.346
240.292
235.681
230.524
224.831
218.618
211.903
204.709
197.057
188.975
180.49
171.634
162.439
152.939
143.171
133.171
122.977
112.628
102.164
91.624
81.048
70.477
59.948
49.502
39.175
29.006
19.03
9.282
-0.206
-9.403
-18.279
-26.808
-34.964
-42.724
-50.07
-56.981
-63.444
-69.444
-74.973
-80.02
-84.583
-88.658
-92.245
-95.348
-97.972
-100.126
-101.819
-103.064
-103.876
-104.271
-104.269
-103.888
-103.151
-102.08
-100.7
-99.037
-97.117
-94.967
-92.615
-90.088
-87.416
-84.625
-81.746
-78.804
-75.829
-72.846
-69.882
-66.962
-64.112
-61.355
-58.712
-56.205
-53.853
-51.673
-49.681
-47.892
-46.317
-44.967
-43.849
-42.971
-42.337
-41.951
-41.812
-41.92
-42.273
-42.866
-43.693
-44.746
-46.014
-47.487
-49.152
-50.997
-53.006
-55.163
-57.451
-59.853
-62.351
-64.926
-67.557
-70.224
-72.907
-75.583
-78.234
-80.839
-83.377
-85.828
-88.174
-90.398
-92.483
-94.413
-96.176
-97.756
-99.144
-100.328
-101.303
-102.061
-102.597
-102.907
-102.993
-102.858
-102.507
-101.947
-101.186
-100.233
-99.1
-97.8
-96.347
-94.75
-93.023
-91.178
-89.233
-87.208
-85.123
-83
-80.857
-78.714
-76.595
-74.52
-72.504
-70.556
-68.684
-66.9
-65.222
-63.681
-62.298
-61.085
-60.055
-59.216
-58.567
-58.107
-57.816
-57.651
-57.581
-57.577
-57.622
-57.721
-57.86
-58.013
-58.154
-58.233
-58.216
-58.094
-57.838
-57.423
-56.88
-56.248
-55.616
-55.124
-54.843
-54.83
-55.17
-55.92
-57.171
-59.019
-61.486
-64.648
-68.666
-73.629
-79.546
-86.222
-93.128
-99.722
-105.565
-110.074
-112.624
-112.735
-110.179
-105.53
-100.072
-95.028
-91.601
-91.04
-94.45
-102.827
-115.344
-128.475
-138.415
-142.476
-141.186
-137.236
-129.654
-111.659
-72.123
-2.754
96.615
216.902
343.346
467.258
584.255
689.303
776.588
830.492
832.703
775.879
660.342
497.149
307.309
108.387
-81.659
-243.682
-366.759
-444.293
-478.815
-483.425
-471.203
-454.438
-438.137
-420.83
-401.086
-374.656
-341.337
-303.056
-260.02
-216.777
-176.699
-141.841
-115.065
-95.497
-81.639
-73.148
-69.347
-69.999
-74.507
-80.872
-86.975
-91.736
-94.757
-96.036
-95.624
-93.509
-89.895
-85.549
-81.603
-78.662
-76.798
-75.886
-75.649
-75.896
-76.497
-77.083
-77.075
-76.087
-73.962
-70.688
-66.437
-61.365
-55.579
-49.283
-42.699
-36.012
-29.383
-22.89
-16.534
-10.322
-4.258
1.664
7.414
12.961
18.302
23.426
28.341
33.075
37.662
42.159
46.628
51.126
55.703
60.39
65.202
70.147
75.225
80.425
85.747
91.189
96.749
102.426
108.22
114.122
120.123
126.205
132.349
138.533
144.736
150.933
157.101
163.22
169.265
175.218
181.056
186.755
192.29
197.633
202.754
207.627
212.221
216.508
220.458
224.046
227.244
230.032
232.385
234.284
235.709
236.642
237.07
236.979
236.359
235.202
233.5
231.252
228.456
225.115
221.235
216.824
211.892
206.455
200.529
194.134
187.293
180.031
172.374
164.352
155.995
147.336
138.409
129.25
119.895
110.38
100.745
91.026
81.262
71.489
61.745
52.064
42.483
33.036
23.754
14.669
5.812
-2.79
-11.11
-19.125
-26.811
-34.15
-41.124
-47.718
-53.919
-59.716
-65.102
-70.072
-74.623
-78.754
-82.469
-85.77
-88.665
-91.162
-93.272
-95.007
-96.381
-97.41
-98.109
-98.497
-98.593
-98.415
-97.984
-97.321
-96.447
-95.384
-94.153
-92.776
-91.274
-89.669
-87.98
-86.229
-84.433
-82.613
-80.785
-78.968
-77.177
-75.428
-73.735
-72.111
-70.568
-69.115
-67.763
-66.518
-65.388
-64.378
-63.491
-62.73
-62.097
-61.592
-61.217
-60.969
-60.846
-60.845
-60.963
-61.193
-61.532
-61.972
-62.506
-63.126
-63.824
-64.592
-65.421
-66.303
-67.227
-68.184
-69.165
-70.159
-71.157
-72.148
-73.121
-74.065
-74.971
-75.828
-76.63
-77.364
-78.024
-78.6
-79.087
-79.479
-79.769
-79.952
-80.024
-79.98
-79.819
-79.539
-79.14
-78.621
-77.985
-77.235
-76.38
-75.428
-74.387
-73.265
-72.073
-70.822
-69.524
-68.19
-66.826
-65.44
-64.042
-62.645
-61.266
-59.918
-58.614
-57.365
-56.184
-55.088
-54.09
-53.195
-52.402
-51.713
-51.135
-50.685
-50.389
-50.264
-50.315
-50.549
-50.966
-51.564
-52.338
-53.257
-54.273
-55.342
-56.428
-57.511
-58.582
-59.611
-60.556
-61.366
-61.982
-62.375
-62.525
-62.403
-62.002
-61.346
-60.48
-59.503
-58.527
-57.643
-56.951
-56.557
-56.565
-57.11
-58.308
-60.289
-63.233
-67.227
-72.236
-78.091
-84.373
-90.55
-96.144
-100.61
-103.298
-103.776
-101.909
-98.11
-93.44
-89.17
-86.478
-86.222
-89.155
-96.041
-106.857
-120.113
-133.541
-142.841
-143.28
-132.879
-108.722
-70.182
-19.142
46.55
126.456
219.957
329.327
449.926
575.745
699.54
805.266
879.152
909.891
885.579
806.833
679.117
507.444
307.105
94.142
-112.278
-284.564
-404.933
-468.834
-484.387
-471.623
-447.546
-417.699
-378.025
-325.027
-261.883
-198.6
-150.583
-124.288
-115.087
-116.189
-117.653
-115.651
-114.33
-115.286
-119.614
-126.298
-130.707
-131.002
-127.332
-120.021
-110.647
-100.484
-90.111
-80.619
-72.903
-67.164
-63.435
-61.459
-60.759
-60.943
-61.538
-61.945
-61.773
-60.846
-59.108
-56.642
-53.513
-49.744
-45.432
-40.692
-35.609
-30.254
-24.657
-18.841
-12.868
-6.825
-0.807
5.108
10.888
16.514
21.978
27.279
32.418
37.409
42.286
47.076
51.794
56.454
61.065
65.643
70.215
74.81
79.451
84.161
88.956
93.847
98.845
103.957
109.183
114.523
119.971
125.523
131.178
136.934
142.786
148.727
154.747
160.835
166.977
173.159
179.359
185.557
191.729
197.852
203.9
209.847
215.665
221.326
226.8
232.057
237.067
241.8
246.225
250.312
254.03
257.352
260.25
262.697
264.668
266.139
267.088
267.497
267.348
266.627
265.322
263.423
260.925
257.825
254.123
249.822
244.93
239.456
233.413
226.818
219.691
212.054
203.933
195.357
186.355
176.961
167.21
157.14
146.788
136.195
125.403
114.453
103.388
92.253
81.089
69.942
58.853
47.866
37.023
26.364
15.928
5.752
-4.127
-13.677
-22.865
-31.664
-40.046
-47.989
-55.47
-62.473
-68.982
-74.984
-80.471
-85.436
-89.877
-93.792
-97.184
-100.059
-102.426
-104.293
-105.676
-106.588
-107.047
-107.074
-106.688
-105.914
-104.776
-103.301
-101.515
-99.448
-97.127
-94.584
-91.848
-88.951
-85.922
-82.792
-79.591
-76.348
-73.093
-69.853
-66.655
-63.526
-60.489
-57.57
-54.789
-52.167
-49.722
-47.473
-45.433
-43.617
-42.036
-40.701
-39.62
-38.798
-38.241
-37.951
-37.93
-38.177
-38.689
-39.463
-40.491
-41.767
-43.282
-45.023
-46.98
-49.136
-51.478
-53.99
-56.653
-59.451
-62.363
-65.37
-68.452
-71.587
-74.756
-77.937
-81.108
-84.248
-87.336
-90.352
-93.275
-96.088
-98.769
-101.302
-103.67
-105.859
-107.853
-109.64
-111.206
-112.541
-113.637
-114.487
-115.087
-115.431
-115.52
-115.356
-114.945
-114.295
-113.417
-112.319
-111.015
-109.517
-107.843
-106.01
-104.035
-101.933
-99.723
-97.424
-95.062
-92.661
-90.243
-87.827
-85.431
-83.074
-80.778
-78.559
-76.428
-74.398
-72.482
-70.693
-69.058
-67.6
-66.326
-65.251
-64.375
-63.695
-63.211
-62.907
-62.751
-62.721
-62.791
-62.937
-63.155
-63.409
-63.672
-63.928
-64.139
-64.293
-64.373
-64.316
-64.094
-63.732
-63.259
-62.772
-62.351
-61.95
-61.677
-61.788
-62.483
-64.039
-66.526
-69.713
-73.655
-78.594
-84.362
-90.496
-96.298
-100.737
-103.4
-104.513
-103.803
-100.859
-95.821
-89.377
-82.967
-78.44
-77.038
-79.309
-85.774
-97.065
-112.15
-127.657
-141.15
-150.628
-155.832
-159.718
-158.502
-143.155
-104.844
-34.314
65.027
179.544
296.95
406.007
506.425
604.063
696.561
775.653
824.021
821.704
762.086
648.144
490.5
307.557
114.628
-72.775
-234.213
-354.49
-425.964
-450.258
-443.409
-424.67
-405.273
-389.505
-373.719
-351.243
-321.669
-288.149
-254.181
-223.482
-196.654
-172.736
-151.635
-133.145
-117.199
-103.926
-93.482
-86.259
-82.776
-82.943
-85.859
-90.294
-94.889
-98.775
-101.497
-102.528
-101.457
-98.233
-93.194
-87.082
-80.894
-75.146
-69.924
-65.296
-61.2
-57.569
-54.357
-51.278
-47.906
-44.041
-39.669
-34.856
-29.769
-24.5
-19.059
-13.527
-8.014
-2.609
2.608
7.617
12.454
17.138
21.678
26.085
30.358
34.525
38.633
42.715
46.801
50.908
55.044
59.228
63.482
67.823
72.272
76.84
81.534
86.362
91.334
96.454
101.726
107.148
112.713
118.411
124.237
130.179
136.229
142.373
148.595
154.878
161.202
167.545
173.882
180.185
186.425
192.57
198.589
204.449
210.118
215.562
220.749
225.646
230.22
234.441
238.276
241.697
244.674
247.181
249.193
250.687
251.641
252.038
251.861
251.099
249.743
247.785
245.222
242.055
238.287
233.926
228.982
223.468
217.403
210.807
203.704
196.122
188.091
179.643
170.814
161.641
152.162
142.419
132.452
122.305
112.021
101.643
91.215
80.782
70.385
60.069
49.874
39.841
30.009
20.416
11.096
2.085
-6.589
-14.895
-22.808
-30.304
-37.364
-43.97
-50.107
-55.765
-60.934
-65.611
-69.793
-73.482
-76.682
-79.399
-81.644
-83.428
-84.766
-85.676
-86.175
-86.284
-86.025
-85.421
-84.497
-83.278
-81.791
-80.063
-78.119
-75.99
-73.701
-71.282
-68.76
-66.162
-63.514
-60.842
-58.173
-55.528
-52.933
-50.408
-47.973
-45.648
-43.451
-41.396
-39.499
-37.771
-36.223
-34.864
-33.701
-32.739
-31.982
-31.433
-31.091
-30.956
-31.026
-31.299
-31.77
-32.434
-33.283
-34.31
-35.508
-36.865
-38.37
-40.012
-41.778
-43.654
-45.627
-47.682
-49.805
-51.98
-54.19
-56.42
-58.654
-60.877
-63.069
-65.216
-67.301
-69.31
-71.227
-73.039
-74.731
-76.291
-77.707
-78.969
-80.067
-80.993
-81.738
-82.294
-82.657
-82.822
-82.787
-82.55
-82.112
-81.473
-80.642
-79.627
-78.434
-77.076
-75.563
-73.907
-72.124
-70.229
-68.235
-66.155
-64.004
-61.8
-59.566
-57.323
-55.091
-52.89
-50.741
-48.663
-46.682
-44.814
-43.067
-41.451
-39.979
-38.669
-37.554
-36.656
-35.986
-35.551
-35.359
-35.407
-35.694
-36.201
-36.883
-37.701
-38.621
-39.617
-40.688
-41.815
-42.958
-44.074
-45.103
-46.005
-46.776
-47.398
-47.842
-48.125
-48.282
-48.395
-48.603
-48.993
-49.627
-50.586
-51.934
-53.783
-56.261
-59.45
-63.464
-68.444
-74.428
-81.39
-89.164
-97.288
-105.249
-112.558
-118.584
-122.71
-124.509
-123.733
-120.718
-116.436
-111.961
-108.307
-106.42
-107.148
-111.162
-118.64
-128.494
-138.345
-145.264
-146.155
-137.956
-117.51
-81.742
-27.978
43.572
129.188
224.419
323.831
424.67
527.766
630.78
728.125
808.782
856.489
857.335
802.336
690.3
526.433
323.488
102.513
-113.111
-295.002
-422.402
-492.131
-509.315
-492.713
-461.404
-421.278
-378.89
-334.148
-285.128
-238.657
-195.294
-156.11
-124.625
-99.17
-81.787
-73.947
-73.734
-80.272
-90.885
-102.661
-113.608
-121.569
-125.6
-125.689
-122.185
-115.928
-107.649
-98.009
-88.096
-79.094
-71.735
-66.28
-62.588
-60.216
-58.726
-57.804
-57.028
-55.909
-54.165
-51.676
-48.436
-44.587
-40.259
-35.508
-30.421
-25.091
-19.563
-13.892
-8.13
-2.302
3.527
9.303
15.001
20.592
26.067
31.429
36.681
41.839
46.938
52.002
57.041
62.066
67.082
72.097
77.135
82.213
87.348
92.555
97.845
103.228
108.713
114.303
119.994
125.778
131.644
137.582
143.585
149.646
155.753
161.894
168.054
174.217
180.367
186.482
192.541
198.517
204.385
210.117
215.688
221.071
226.236
231.157
235.804
240.15
244.169
247.834
251.119
253.999
256.452
258.456
259.992
261.041
261.588
261.619
261.122
260.089
258.514
256.394
253.727
250.515
246.763
242.48
237.674
232.359
226.55
220.266
213.527
206.357
198.782
190.829
182.528
173.91
165.009
155.857
146.491
136.944
127.254
117.456
107.587
97.682
87.777
77.907
68.106
58.407
48.843
39.443
30.238
21.253
12.516
4.049
-4.125
-11.987
-19.519
-26.705
-33.532
-39.987
-46.063
-51.752
-57.048
-61.95
-66.455
-70.566
-74.286
-77.619
-80.573
-83.154
-85.372
-87.238
-88.764
-89.962
-90.846
-91.43
-91.729
-91.758
-91.535
-91.075
-90.394
-89.509
-88.437
-87.193
-85.795
-84.258
-82.598
-80.831
-78.972
-77.038
-75.042
-72.999
-70.925
-68.832
-66.735
-64.646
-62.577
-60.538
-58.541
-56.595
-54.711
-52.899
-51.167
-49.525
-47.981
-46.543
-45.219
-44.016
-42.941
-41.999
-41.196
-40.536
-40.025
-39.666
-39.464
-39.422
-39.541
-39.825
-40.275
-40.89
-41.669
-42.609
-43.707
-44.958
-46.354
-47.887
-49.55
-51.335
-53.234
-55.238
-57.341
-59.532
-61.801
-64.14
-66.535
-68.971
-71.43
-73.89
-76.331
-78.736
-81.086
-83.367
-85.561
-87.653
-89.63
-91.485
-93.206
-94.783
-96.195
-97.411
-98.418
-99.215
-99.813
-100.232
-100.491
-100.6
-100.58
-100.468
-100.28
-100.026
-99.69
-99.226
-98.614
-97.852
-96.956
-95.976
-94.93
-93.796
-92.555
-91.18
-89.645
-87.949
-86.05
-83.861
-81.35
-78.528
-75.456
-72.27
-69.042
-65.781
-62.488
-59.138
-55.743
-52.372
-49.073
-45.868
-42.79
-39.852
-37.133
-34.801
-32.944
-31.574
-30.641
-30.031
-29.747
-29.908
-30.613
-31.931
-33.865
-36.38
-39.514
-43.384
-48.077
-53.661
-60.091
-67.256
-75.212
-84
-93.536
-103.554
-113.376
-122.186
-129.404
-134.495
-136.838
-136.135
-132.455
-126.384
-119.489
-113.458
-109.482
-108.695
-112.046
-119.708
-130.945
-143.754
-154.5
-159.275
-154.546
-136.657
-102.418
-49.253
22.807
109.852
206.526
306.859
407.886
511.532
616.413
715.117
794.646
835
820.865
750.07
628.493
469.126
288.392
98.307
-88.254
-252.843
-379.768
-459.883
-493.097
-493.604
-479.873
-462.481
-444.994
-424.104
-393.745
-353.882
-308.301
-261.431
-218.058
-180.743
-150.732
-128.446
-113.101
-103.68
-99.066
-98.234
-100.391
-104.07
-106.978
-107.608
-105.398
-100.341
-93.117
-84.387
-74.55
-64.512
-55.658
-48.812
-44.274
-41.956
-41.277
-41.729
-43.03
-44.719
-46.216
-47.173
-47.355
-46.666
-45.199
-42.965
-39.925
-36.113
-31.594
-26.457
-20.844
-14.912
-8.787
-2.605
3.526
9.548
15.411
21.099
26.61
31.952
37.129
42.131
46.944
51.552
55.956
60.174
64.256
68.272
72.288
76.369
80.565
84.91
89.432
94.143
99.042
104.117
109.356
114.754
120.312
126.033
131.913
137.943
144.107
150.386
156.756
163.191
169.663
176.141
182.595
188.999
195.326
201.552
207.649
213.589
219.341
224.87
230.143
235.125
239.78
244.074
247.97
251.438
254.448
256.971
258.982
260.456
261.373
261.713
261.461
260.605
259.133
257.039
254.32
250.976
247.009
242.427
237.24
231.462
225.109
218.203
210.767
202.828
194.415
185.561
176.301
166.67
156.709
146.459
135.961
125.259
114.4
103.429
92.391
81.334
70.302
59.341
48.493
37.803
27.31
17.054
7.072
-2.6
-11.93
-20.886
-29.442
-37.571
-45.253
-52.467
-59.199
-65.434
-71.163
-76.38
-81.081
-85.265
-88.936
-92.098
-94.76
-96.933
-98.631
-99.871
-100.67
-101.049
-101.031
-100.64
-99.901
-98.841
-97.487
-95.869
-94.014
-91.953
-89.714
-87.327
-84.821
-82.225
-79.566
-76.873
-74.171
-71.486
-68.842
-66.262
-63.768
-61.379
-59.113
-56.987
-55.017
-53.214
-51.591
-50.156
-48.919
-47.884
-47.056
-46.439
-46.032
-45.836
-45.848
-46.065
-46.481
-47.092
-47.889
-48.865
-50.01
-51.315
-52.768
-54.359
-56.074
-57.903
-59.83
-61.842
-63.926
-66.067
-68.249
-70.457
-72.678
-74.896
-77.099
-79.27
-81.398
-83.468
-85.467
-87.384
-89.207
-90.922
-92.52
-93.99
-95.322
-96.508
-97.541
-98.412
-99.116
-99.648
-100.003
-100.179
-100.173
-99.983
-99.609
-99.051
-98.313
-97.398
-96.311
-95.057
-93.644
-92.083
-90.388
-88.572
-86.65
-84.637
-82.55
-80.406
-78.223
-76.018
-73.802
-71.587
-69.391
-67.229
-65.121
-63.086
-61.137
-59.29
-57.56
-55.963
-54.511
-53.211
-52.061
-51.063
-50.223
-49.557
-49.089
-48.838
-48.811
-49.013
-49.442
-50.09
-50.946
-51.978
-53.137
-54.376
-55.658
-56.956
-58.258
-59.538
-60.761
-61.876
-62.818
-63.544
-64.014
-64.197
-64.097
-63.74
-63.173
-62.485
-61.776
-61.135
-60.677
-60.521
-60.763
-61.502
-62.802
-64.776
-67.64
-71.537
-76.455
-82.147
-88.101
-93.795
-98.815
-102.625
-104.541
-104.063
-101.063
-96.234
-90.968
-86.502
-84.116
-85.14
-90.471
-100.898
-115.331
-129.658
-140.868
-146.989
-147.161
-143.572
-132.252
-103.625
-50.403
33.197
142.747
263.925
386.154
503.66
614.717
718.842
807.639
863.211
866.66
808.81
690.516
523.976
331.927
132.828
-54.804
-211.025
-329.233
-407.06
-449.056
-471.345
-482.271
-484.561
-478.072
-456.648
-420.176
-374.046
-323.812
-275.875
-233.565
-197.793
-169.934
-150.22
-137.878
-131.737
-129.972
-131.063
-134.093
-137.688
-139.844
-139.316
-135.747
-129.34
-120.947
-111.298
-100.824
-90.372
-81.187
-73.987
-68.941
-65.904
-64.295
-63.61
-63.608
-63.885
-63.911
-63.37
-62.09
-60.038
-57.365
-54.159
-50.381
-46.02
-41.111
-35.729
-30.027
-24.137
-18.138
-12.121
-6.163
-0.329
5.316
10.754
16.014
21.129
26.13
31.042
35.847
40.521
45.062
49.491
53.861
58.221
62.61
67.065
71.622
76.321
81.198
86.265
91.509
96.915
102.469
108.163
114.001
119.981
126.095
132.331
138.671
145.099
151.598
158.145
164.712
171.267
177.778
184.217
190.559
196.78
202.851
208.741
214.421
219.86
225.031
229.903
234.445
238.624
242.411
245.779
248.703
251.159
253.123
254.575
255.497
255.873
255.692
254.942
253.616
251.708
249.218
246.146
242.495
238.274
233.492
228.162
222.3
215.925
209.059
201.727
193.955
185.771
177.206
168.292
159.062
149.551
139.794
129.828
119.691
109.422
99.059
88.641
78.208
67.797
57.446
47.193
37.073
27.121
17.37
7.851
-1.404
-10.369
-19.016
-27.321
-35.262
-42.819
-49.975
-56.715
-63.026
-68.898
-74.324
-79.298
-83.817
-87.88
-91.489
-94.647
-97.361
-99.636
-101.483
-102.914
-103.939
-104.576
-104.838
-104.745
-104.315
-103.567
-102.524
-101.205
-99.635
-97.835
-95.829
-93.641
-91.294
-88.812
-86.219
-83.538
-80.793
-78.007
-75.203
-72.402
-69.626
-66.894
-64.226
-61.642
-59.158
-56.79
-54.556
-52.468
-50.541
-48.787
-47.218
-45.842
-44.669
-43.704
-42.954
-42.423
-42.114
-42.027
-42.163
-42.521
-43.098
-43.891
-44.896
-46.107
-47.517
-49.118
-50.9
-52.853
-54.966
-57.226
-59.618
-62.128
-64.741
-67.441
-70.211
-73.034
-75.892
-78.767
-81.641
-84.494
-87.306
-90.059
-92.733
-95.31
-97.771
-100.101
-102.282
-104.299
-106.137
-107.783
-109.227
-110.455
-111.46
-112.23
-112.76
-113.044
-113.079
-112.861
-112.39
-111.669
-110.701
-109.497
-108.067
-106.421
-104.573
-102.539
-100.336
-97.983
-95.497
-92.893
-90.189
-87.404
-84.561
-81.684
-78.798
-75.924
-73.084
-70.3
-67.597
-64.994
-62.507
-60.142
-57.909
-55.823
-53.906
-52.192
-50.705
-49.462
-48.474
-47.75
-47.291
-47.092
-47.132
-47.364
-47.748
-48.247
-48.836
-49.503
-50.221
-50.953
-51.643
-52.225
-52.655
-52.891
-52.904
-52.693
-52.274
-51.689
-51.028
-50.392
-49.884
-49.633
-49.733
-50.285
-51.41
-53.185
-55.762
-59.377
-64.12
-69.963
-76.753
-84.012
-91.2
-97.873
-103.356
-106.852
-107.902
-106.344
-102.493
-97.49
-92.89
-89.997
-90.045
-94.496
-102.903
-114.16
-128.111
-141.989
-154.804
-165.572
-166.333
-150.807
-111.581
-42.297
49.904
157.011
270.973
384.337
501.319
623.341
744.62
852.808
925.398
942.947
895.517
784.191
620.42
420.26
201.754
-16.296
-214.044
-373.562
-482.191
-536.349
-541.479
-508.712
-453.283
-388.738
-327.944
-280.484
-247.539
-225.991
-206.952
-182.36
-151.882
-119.235
-91.657
-74.379
-67.188
-67.591
-72.305
-78.927
-86.213
-93.059
-98.21
-100.793
-100.678
-98.085
-93.252
-86.55
-78.51
-69.945
-62.023
-55.421
-50.198
-46.206
-43.105
-40.627
-38.625
-36.789
-34.656
-31.961
-28.623
-24.686
-20.333
-15.68
-10.756
-5.628
-0.378
4.919
10.185
15.37
20.452
25.413
30.24
34.921
39.447
43.823
48.064
52.199
56.268
60.298
64.306
68.306
72.308
76.328
80.392
84.518
88.724
93.026
97.432
101.957
106.612
111.402
116.326
121.378
126.548
131.829
137.213
142.693
148.256
153.891
159.58
165.307
171.054
176.798
182.516
188.18
193.762
199.234
204.566
209.729
214.694
219.431
223.91
228.101
231.977
235.51
238.674
241.442
243.793
245.703
247.153
248.126
248.605
248.579
248.036
246.968
245.371
243.243
240.584
237.397
233.69
229.471
224.753
219.55
213.88
207.764
201.222
194.282
186.969
179.314
171.346
163.098
154.603
145.896
137.013
127.988
118.858
109.657
100.422
91.186
81.985
72.85
63.815
54.909
46.163
37.603
29.257
21.148
13.298
5.729
-1.542
-8.499
-15.127
-21.415
-27.353
-32.933
-38.149
-42.997
-47.476
-51.586
-55.329
-58.709
-61.731
-64.402
-66.733
-68.732
-70.412
-71.784
-72.863
-73.662
-74.195
-74.478
-74.526
-74.355
-73.981
-73.421
-72.69
-71.805
-70.781
-69.635
-68.382
-67.037
-65.614
-64.127
-62.591
-61.017
-59.419
-57.809
-56.199
-54.601
-53.025
-51.483
-49.983
-48.535
-47.147
-45.828
-44.583
-43.421
-42.346
-41.365
-40.483
-39.705
-39.036
-38.478
-38.036
-37.712
-37.509
-37.427
-37.468
-37.633
-37.92
-38.33
-38.863
-39.515
-40.287
-41.176
-42.177
-43.288
-44.504
-45.819
-47.227
-48.72
-50.29
-51.927
-53.622
-55.366
-57.148
-58.958
-60.783
-62.612
-64.433
-66.232
-67.998
-69.715
-71.37
-72.95
-74.443
-75.835
-77.112
-78.263
-79.276
-80.14
-80.847
-81.387
-81.75
-81.929
-81.916
-81.709
-81.303
-80.694
-79.879
-78.859
-77.636
-76.221
-74.625
-72.858
-70.932
-68.863
-66.665
-64.356
-61.952
-59.461
-56.894
-54.263
-51.586
-48.883
-46.179
-43.497
-40.854
-38.268
-35.751
-33.313
-30.962
-28.7
-26.529
-24.455
-22.494
-20.679
-19.041
-17.605
-16.39
-15.402
-14.63
-14.054
-13.645
-13.37
-13.22
-13.196
-13.288
-13.473
-13.703
-13.936
-14.136
-14.273
-14.288
-14.064
-13.555
-12.867
-12.256
-12.025
-12.336
-13.104
-14.187
-15.645
-17.486
-19.532
-21.318
-22.193
-21.973
-21.212
-20.697
-20.867
-21.877
-23.696
-26.56
-31.099
-37.322
-44.247
-50.515
-55.144
-57.994
-59.775
-61.172
-62.328
-63.435
-65.317
-69.258
-76.019
-84.909
-92.717
-94.628
-86.57
-66.288
-35.453
2.815
46.964
97.201
160.419
244.26
351.957
483.959
627.756
762.584
868.024
921.924
912.491
842.03
717.796
552.531
361.95
158.982
-40.357
-214.567
-346.368
-428.165
-462.301
-462.501
-446.515
-421.044
-386.379
-344.335
-292.681
-236.936
-187.849
-145.58
-111.587
-86.033
-63.811
-46.949
-36.895
-32.08
-32.652
-36.073
-39.186
-40.278
-38.223
-33.089
-25.597
-16.636
-7.103
2.391
11.079
17.914
22.437
24.661
24.793
23.45
21.217
18.422
15.488
12.912
10.97
9.842
9.665
10.42
12.091
14.709
18.21
22.485
27.422
32.839
38.578
44.516
50.515
56.485
62.375
68.149
73.796
79.325
84.72
89.959
95.038
99.946
104.689
109.293
113.796
118.262
122.762
127.36
132.111
137.052
142.203
147.577
153.172
158.972
164.967
171.146
177.498
184.019
190.698
197.522
204.47
211.518
218.634
225.788
232.947
240.077
247.144
254.117
260.963
267.654
274.161
280.453
286.499
292.262
297.709
302.807
307.522
311.821
315.672
319.046
321.917
324.261
326.058
327.29
327.94
327.996
327.448
326.29
324.518
322.132
319.134
315.53
311.33
306.545
301.192
295.29
288.86
281.928
274.52
266.668
258.404
249.763
240.781
231.495
221.945
212.17
202.213
192.114
181.917
171.661
161.391
151.146
140.966
130.89
120.954
111.194
101.643
92.332
83.291
74.545
66.121
58.039
50.32
42.981
36.036
29.496
23.371
17.667
12.387
7.533
3.104
-0.905
-4.5
-7.69
-10.485
-12.898
-14.945
-16.641
-18.004
-19.054
-19.811
-20.297
-20.533
-20.542
-20.347
-19.97
-19.435
-18.763
-17.978
-17.102
-16.154
-15.158
-14.131
-13.093
-12.062
-11.055
-10.088
-9.176
-8.332
-7.571
-6.902
-6.338
-5.886
-5.556
-5.354
-5.285
-5.353
-5.562
-5.911
-6.403
-7.035
-7.806
-8.712
-9.751
-10.917
-12.206
-13.612
-15.128
-16.747
-18.462
-20.265
-22.149
